   4000.00000   2.82350394E-003
   3998.66622   2.83846674E-003
   3997.33244   2.85356153E-003
   3995.99867   2.86879001E-003
   3994.66489   2.88415386E-003
   3993.33111   2.89965481E-003
   3991.99733   2.91529463E-003
   3990.66355   2.93107510E-003
   3989.32978   2.94699803E-003
   3987.99600   2.96306528E-003
   3986.66222   2.97927873E-003
   3985.32844   2.99564028E-003
   3983.99466   3.01215189E-003
   3982.66089   3.02881552E-003
   3981.32711   3.04563320E-003
   3979.99333   3.06260698E-003
   3978.65955   3.07973893E-003
   3977.32578   3.09703117E-003
   3975.99200   3.11448587E-003
   3974.65822   3.13210523E-003
   3973.32444   3.14989147E-003
   3971.99066   3.16784687E-003
   3970.65689   3.18597375E-003
   3969.32311   3.20427446E-003
   3967.98933   3.22275142E-003
   3966.65555   3.24140705E-003
   3965.32177   3.26024385E-003
   3963.98800   3.27926435E-003
   3962.65422   3.29847115E-003
   3961.32044   3.31786685E-003
   3959.98666   3.33745415E-003
   3958.65288   3.35723576E-003
   3957.31911   3.37721448E-003
   3955.98533   3.39739312E-003
   3954.65155   3.41777458E-003
   3953.31777   3.43836179E-003
   3951.98399   3.45915776E-003
   3950.65022   3.48016552E-003
   3949.31644   3.50138820E-003
   3947.98266   3.52282897E-003
   3946.64888   3.54449107E-003
   3945.31511   3.56637778E-003
   3943.98133   3.58849247E-003
   3942.64755   3.61083857E-003
   3941.31377   3.63341957E-003
   3939.97999   3.65623905E-003
   3938.64622   3.67930063E-003
   3937.31244   3.70260804E-003
   3935.97866   3.72616504E-003
   3934.64488   3.74997551E-003
   3933.31110   3.77404339E-003
   3931.97733   3.79837270E-003
   3930.64355   3.82296753E-003
   3929.30977   3.84783209E-003
   3927.97599   3.87297065E-003
   3926.64221   3.89838756E-003
   3925.30844   3.92408730E-003
   3923.97466   3.95007441E-003
   3922.64088   3.97635354E-003
   3921.30710   4.00292943E-003
   3919.97332   4.02980694E-003
   3918.63955   4.05699102E-003
   3917.30577   4.08448673E-003
   3915.97199   4.11229924E-003
   3914.63821   4.14043383E-003
   3913.30443   4.16889591E-003
   3911.97066   4.19769099E-003
   3910.63688   4.22682472E-003
   3909.30310   4.25630286E-003
   3907.96932   4.28613131E-003
   3906.63555   4.31631611E-003
   3905.30177   4.34686341E-003
   3903.96799   4.37777954E-003
   3902.63421   4.40907094E-003
   3901.30043   4.44074422E-003
   3899.96666   4.47280613E-003
   3898.63288   4.50526359E-003
   3897.29910   4.53812367E-003
   3895.96532   4.57139361E-003
   3894.63154   4.60508084E-003
   3893.29777   4.63919293E-003
   3891.96399   4.67373767E-003
   3890.63021   4.70872302E-003
   3889.29643   4.74415713E-003
   3887.96265   4.78004836E-003
   3886.62888   4.81640527E-003
   3885.29510   4.85323662E-003
   3883.96132   4.89055141E-003
   3882.62754   4.92835885E-003
   3881.29376   4.96666839E-003
   3879.95999   5.00548971E-003
   3878.62621   5.04483275E-003
   3877.29243   5.08470768E-003
   3875.95865   5.12512496E-003
   3874.62487   5.16609531E-003
   3873.29110   5.20762972E-003
   3871.95732   5.24973949E-003
   3870.62354   5.29243620E-003
   3869.28976   5.33573175E-003
   3867.95599   5.37963834E-003
   3866.62221   5.42416852E-003
   3865.28843   5.46933518E-003
   3863.95465   5.51515153E-003
   3862.62087   5.56163119E-003
   3861.28710   5.60878811E-003
   3859.95332   5.65663668E-003
   3858.61954   5.70519163E-003
   3857.28576   5.75446816E-003
   3855.95198   5.80448188E-003
   3854.61821   5.85524883E-003
   3853.28443   5.90678555E-003
   3851.95065   5.95910902E-003
   3850.61687   6.01223674E-003
   3849.28309   6.06618672E-003
   3847.94932   6.12097749E-003
   3846.61554   6.17662814E-003
   3845.28176   6.23315834E-003
   3843.94798   6.29058836E-003
   3842.61420   6.34893905E-003
   3841.28043   6.40823194E-003
   3839.94665   6.46848921E-003
   3838.61287   6.52973373E-003
   3837.27909   6.59198907E-003
   3835.94532   6.65527958E-003
   3834.61154   6.71963036E-003
   3833.27776   6.78506732E-003
   3831.94398   6.85161720E-003
   3830.61020   6.91930762E-003
   3829.27643   6.98816711E-003
   3827.94265   7.05822513E-003
   3826.60887   7.12951213E-003
   3825.27509   7.20205957E-003
   3823.94131   7.27590000E-003
   3822.60754   7.35106706E-003
   3821.27376   7.42759556E-003
   3819.93998   7.50552150E-003
   3818.60620   7.58488216E-003
   3817.27242   7.66571612E-003
   3815.93865   7.74806333E-003
   3814.60487   7.83196519E-003
   3813.27109   7.91746458E-003
   3811.93731   8.00460596E-003
   3810.60353   8.09343540E-003
   3809.26976   8.18400071E-003
   3807.93598   8.27635147E-003
   3806.60220   8.37053913E-003
   3805.26842   8.46661713E-003
   3803.93464   8.56464093E-003
   3802.60087   8.66466817E-003
   3801.26709   8.76675872E-003
   3799.93331   8.87097484E-003
   3798.59953   8.97738126E-003
   3797.26576   9.08604532E-003
   3795.93198   9.19703710E-003
   3794.59820   9.31042957E-003
   3793.26442   9.42629869E-003
   3791.93064   9.54472363E-003
   3790.59687   9.66578689E-003
   3789.26309   9.78957451E-003
   3787.92931   9.91617621E-003
   3786.59553   1.00456856E-002
   3785.26175   1.01782005E-002
   3783.92798   1.03138231E-002
   3782.59420   1.04526599E-002
   3781.26042   1.05948225E-002
   3779.92664   1.07404276E-002
   3778.59286   1.08895973E-002
   3777.25909   1.10424593E-002
   3775.92531   1.11991474E-002
   3774.59153   1.13598020E-002
   3773.25775   1.15245700E-002
   3771.92397   1.16936057E-002
   3770.59020   1.18670710E-002
   3769.25642   1.20451358E-002
   3767.92264   1.22279789E-002
   3766.58886   1.24157879E-002
   3765.25509   1.26087604E-002
   3763.92131   1.28071043E-002
   3762.58753   1.30110385E-002
   3761.25375   1.32207938E-002
   3759.91997   1.34366135E-002
   3758.58620   1.36587543E-002
   3757.25242   1.38874874E-002
   3755.91864   1.41230990E-002
   3754.58486   1.43658921E-002
   3753.25108   1.46161871E-002
   3751.91731   1.48743232E-002
   3750.58353   1.51406600E-002
   3749.24975   1.54155787E-002
   3747.91597   1.56994840E-002
   3746.58219   1.59928055E-002
   3745.24842   1.62960001E-002
   3743.91464   1.66095539E-002
   3742.58086   1.69339844E-002
   3741.24708   1.72698431E-002
   3739.91330   1.76177186E-002
   3738.57953   1.79782391E-002
   3737.24575   1.83520761E-002
   3735.91197   1.87399481E-002
   3734.57819   1.91426244E-002
   3733.24441   1.95609301E-002
   3731.91064   1.99957503E-002
   3730.57686   2.04480362E-002
   3729.24308   2.09188110E-002
   3727.90930   2.14091767E-002
   3726.57553   2.19203211E-002
   3725.24175   2.24535271E-002
   3723.90797   2.30101811E-002
   3722.57419   2.35917840E-002
   3721.24041   2.41999626E-002
   3719.90664   2.48364828E-002
   3718.57286   2.55032640E-002
   3717.23908   2.62023962E-002
   3715.90530   2.69361584E-002
   3714.57152   2.77070394E-002
   3713.23775   2.85177625E-002
   3711.90397   2.93713119E-002
   3710.57019   3.02709646E-002
   3709.23641   3.12203249E-002
   3707.90263   3.22233657E-002
   3706.56886   3.32844742E-002
   3705.23508   3.44085065E-002
   3703.90130   3.56008482E-002
   3702.56752   3.68674868E-002
   3701.23374   3.82150946E-002
   3699.89997   3.96511249E-002
   3698.56619   4.11839262E-002
   3697.23241   4.28228741E-002
   3695.89863   4.45785281E-002
   3694.56485   4.64628163E-002
   3693.23108   4.84892549E-002
   3691.89730   5.06732099E-002
   3690.56352   5.30322104E-002
   3689.22974   5.55863252E-002
   3687.89597   5.83586191E-002
   3686.56219   6.13757066E-002
   3685.22841   6.46684288E-002
   3683.89463   6.82726861E-002
   3682.56085   7.22304673E-002
   3681.22708   7.65911318E-002
   3679.89330   8.14130155E-002
   3678.55952   8.67654609E-002
   3677.22574   9.27313989E-002
   3675.89196   9.94106637E-002
   3674.55819   1.06924285E-001
   3673.22441   1.15420099E-001
   3671.89063   1.25080159E-001
   3670.55685   1.36130634E-001
   3669.22307   1.48855178E-001
   3667.88930   1.63613231E-001
   3666.55552   1.80865411E-001
   3665.22174   2.01209269E-001
   3663.88796   2.25430463E-001
   3662.55418   2.54577265E-001
   3661.22041   2.90071121E-001
   3659.88663   3.33874024E-001
   3658.55285   3.88747395E-001
   3657.21907   4.58661610E-001
   3655.88530   5.49458597E-001
   3654.55152   6.69946645E-001
   3653.21774   8.33737052E-001
   3651.88396   1.06232437E+000
   3650.55018   1.39003786E+000
   3649.21641   1.87067938E+000
   3647.88263   2.57973298E+000
   3646.54885   3.58016983E+000
   3645.21507   4.75863168E+000
   3643.88129   5.54078221E+000
   3642.54752   5.25017833E+000
   3641.21374   4.16633363E+000
   3639.87996   3.04170829E+000
   3638.54618   2.19281524E+000
   3637.21240   1.61070942E+000
   3635.87863   1.21676480E+000
   3634.54485   9.45761954E-001
   3633.21107   7.54575670E-001
   3631.87729   6.16113315E-001
   3630.54351   5.13351178E-001
   3629.20974   4.35399033E-001
   3627.87596   3.75123620E-001
   3626.54218   3.27736026E-001
   3625.20840   2.89944113E-001
   3623.87462   2.59434297E-001
   3622.54085   2.34547625E-001
   3621.20707   2.14072667E-001
   3619.87329   1.97110149E-001
   3618.53951   1.82982635E-001
   3617.20574   1.71173077E-001
   3615.87196   1.61282264E-001
   3614.53818   1.52998860E-001
   3613.20440   1.46077993E-001
   3611.87062   1.40325743E-001
   3610.53685   1.35587770E-001
   3609.20307   1.31740876E-001
   3607.86929   1.28686702E-001
   3606.53551   1.26346969E-001
   3605.20173   1.24659882E-001
   3603.86796   1.23577399E-001
   3602.53418   1.23063167E-001
   3601.20040   1.23090975E-001
   3599.86662   1.23643628E-001
   3598.53284   1.24712145E-001
   3597.19907   1.26295259E-001
   3595.86529   1.28399158E-001
   3594.53151   1.31037461E-001
   3593.19773   1.34231418E-001
   3591.86395   1.38010337E-001
   3590.53018   1.42412258E-001
   3589.19640   1.47484898E-001
   3587.86262   1.53286911E-001
   3586.52884   1.59889528E-001
   3585.19507   1.67378656E-001
   3583.86129   1.75857545E-001
   3582.52751   1.85450190E-001
   3581.19373   1.96305644E-001
   3579.85995   2.08603544E-001
   3578.52618   2.22561204E-001
   3577.19240   2.38442794E-001
   3575.85862   2.56571312E-001
   3574.52484   2.77344341E-001
   3573.19106   3.01254998E-001
   3571.85729   3.28920094E-001
   3570.52351   3.61118448E-001
   3569.18973   3.98843689E-001
   3567.85595   4.43378090E-001
   3566.52217   4.96397385E-001
   3565.18840   5.60122085E-001
   3563.85462   6.37539901E-001
   3562.52084   7.32739101E-001
   3561.18706   8.51418641E-001
   3559.85328   1.00168618E+000
   3558.51951   1.19533508E+000
   3557.18573   1.44993342E+000
   3555.85195   1.79230639E+000
   3554.51817   2.26439478E+000
   3553.18439   2.93295199E+000
   3551.85062   3.90420976E+000
   3550.51684   5.33862756E+000
   3549.18306   7.42863580E+000
   3547.84928   1.01913069E+001
   3546.51551   1.28370610E+001
   3545.18173   1.35177893E+001
   3543.84795   1.15792001E+001
   3542.51417   8.69269963E+000
   3541.18039   6.25113837E+000
   3539.84662   4.52285862E+000
   3538.51284   3.35180621E+000
   3537.17906   2.55350775E+000
   3535.84528   1.99679883E+000
   3534.51150   1.59803487E+000
   3533.17773   1.30484326E+000
   3531.84395   1.08405263E+000
   3530.51017   9.14191181E-001
   3529.17639   7.81014379E-001
   3527.84261   6.74838805E-001
   3526.50884   5.88928129E-001
   3525.17506   5.18495332E-001
   3523.84128   4.60071757E-001
   3522.50750   4.11099099E-001
   3521.17372   3.69659829E-001
   3519.83995   3.34295466E-001
   3518.50617   3.03881754E-001
   3517.17239   2.77541413E-001
   3515.83861   2.54582187E-001
   3514.50483   2.34452173E-001
   3513.17106   2.16707181E-001
   3511.83728   2.00986574E-001
   3510.50350   1.86995177E-001
   3509.16972   1.74489569E-001
   3507.83595   1.63267605E-001
   3506.50217   1.53160323E-001
   3505.16839   1.44025630E-001
   3503.83461   1.35743354E-001
   3502.50083   1.28211315E-001
   3501.16706   1.21342194E-001
   3499.83328   1.15061018E-001
   3498.49950   1.09303133E-001
   3497.16572   1.04012542E-001
   3495.83194   9.91405552E-002
   3494.49817   9.46446796E-002
   3493.16439   9.04876946E-002
   3491.83061   8.66368885E-002
   3490.49683   8.30634195E-002
   3489.16305   7.97417800E-002
   3487.82928   7.66493448E-002
   3486.49550   7.37659903E-002
   3485.16172   7.10737695E-002
   3483.82794   6.85566362E-002
   3482.49416   6.62002093E-002
   3481.16039   6.39915693E-002
   3479.82661   6.19190845E-002
   3478.49283   5.99722601E-002
   3477.15905   5.81416080E-002
   3475.82528   5.64185328E-002
   3474.49150   5.47952339E-002
   3473.15772   5.32646187E-002
   3471.82394   5.18202274E-002
   3470.49016   5.04561667E-002
   3469.15639   4.91670515E-002
   3467.82261   4.79479533E-002
   3466.48883   4.67943552E-002
   3465.15505   4.57021113E-002
   3463.82127   4.46674112E-002
   3462.48750   4.36867480E-002
   3461.15372   4.27568905E-002
   3459.81994   4.18748575E-002
   3458.48616   4.10378952E-002
   3457.15238   4.02434576E-002
   3455.81861   3.94891875E-002
   3454.48483   3.87729009E-002
   3453.15105   3.80925720E-002
   3451.81727   3.74463199E-002
   3450.48349   3.68323968E-002
   3449.14972   3.62491775E-002
   3447.81594   3.56951488E-002
   3446.48216   3.51689015E-002
   3445.14838   3.46691220E-002
   3443.81460   3.41945848E-002
   3442.48083   3.37441463E-002
   3441.14705   3.33167381E-002
   3439.81327   3.29113623E-002
   3438.47949   3.25270858E-002
   3437.14572   3.21630359E-002
   3435.81194   3.18183962E-002
   3434.47816   3.14924023E-002
   3433.14438   3.11843391E-002
   3431.81060   3.08935366E-002
   3430.47683   3.06193677E-002
   3429.14305   3.03612447E-002
   3427.80927   3.01186176E-002
   3426.47549   2.98909713E-002
   3425.14171   2.96778233E-002
   3423.80794   2.94787224E-002
   3422.47416   2.92932460E-002
   3421.14038   2.91209995E-002
   3419.80660   2.89616136E-002
   3418.47282   2.88147439E-002
   3417.13905   2.86800688E-002
   3415.80527   2.85572890E-002
   3414.47149   2.84461258E-002
   3413.13771   2.83463203E-002
   3411.80393   2.82576326E-002
   3410.47016   2.81798407E-002
   3409.13638   2.81127400E-002
   3407.80260   2.80561419E-002
   3406.46882   2.80098741E-002
   3405.13505   2.79737791E-002
   3403.80127   2.79477143E-002
   3402.46749   2.79315508E-002
   3401.13371   2.79251735E-002
   3399.79993   2.79284807E-002
   3398.46616   2.79413832E-002
   3397.13238   2.79638042E-002
   3395.79860   2.79956792E-002
   3394.46482   2.80369556E-002
   3393.13104   2.80875923E-002
   3391.79727   2.81475597E-002
   3390.46349   2.82168393E-002
   3389.12971   2.82954238E-002
   3387.79593   2.83833168E-002
   3386.46215   2.84805329E-002
   3385.12838   2.85870976E-002
   3383.79460   2.87030468E-002
   3382.46082   2.88284276E-002
   3381.12704   2.89632978E-002
   3379.79326   2.91077260E-002
   3378.45949   2.92617917E-002
   3377.12571   2.94255856E-002
   3375.79193   2.95992095E-002
   3374.45815   2.97827765E-002
   3373.12437   2.99764113E-002
   3371.79060   3.01802502E-002
   3370.45682   3.03944416E-002
   3369.12304   3.06191462E-002
   3367.78926   3.08545371E-002
   3366.45549   3.11008004E-002
   3365.12171   3.13581354E-002
   3363.78793   3.16267553E-002
   3362.45415   3.19068871E-002
   3361.12037   3.21987726E-002
   3359.78660   3.25026686E-002
   3358.45282   3.28188479E-002
   3357.11904   3.31475991E-002
   3355.78526   3.34892282E-002
   3354.45148   3.38440586E-002
   3353.11771   3.42124322E-002
   3351.78393   3.45947101E-002
   3350.45015   3.49912737E-002
   3349.11637   3.54025251E-002
   3347.78259   3.58288888E-002
   3346.44882   3.62708121E-002
   3345.11504   3.67287669E-002
   3343.78126   3.72032505E-002
   3342.44748   3.76947870E-002
   3341.11370   3.82039290E-002
   3339.77993   3.87312587E-002
   3338.44615   3.92773900E-002
   3337.11237   3.98429698E-002
   3335.77859   4.04286803E-002
   3334.44481   4.10352410E-002
   3333.11104   4.16634104E-002
   3331.77726   4.23139890E-002
   3330.44348   4.29878215E-002
   3329.10970   4.36857995E-002
   3327.77593   4.44088647E-002
   3326.44215   4.51580115E-002
   3325.10837   4.59342913E-002
   3323.77459   4.67388153E-002
   3322.44081   4.75727590E-002
   3321.10704   4.84373663E-002
   3319.77326   4.93339543E-002
   3318.43948   5.02639182E-002
   3317.10570   5.12287368E-002
   3315.77192   5.22299787E-002
   3314.43815   5.32693081E-002
   3313.10437   5.43484926E-002
   3311.77059   5.54694100E-002
   3310.43681   5.66340574E-002
   3309.10303   5.78445597E-002
   3307.76926   5.91031795E-002
   3306.43548   6.04123282E-002
   3305.10170   6.17745775E-002
   3303.76792   6.31926725E-002
   3302.43414   6.46695457E-002
   3301.10037   6.62083329E-002
   3299.76659   6.78123899E-002
   3298.43281   6.94853117E-002
   3297.09903   7.12309531E-002
   3295.76526   7.30534517E-002
   3294.43148   7.49572533E-002
   3293.09770   7.69471402E-002
   3291.76392   7.90282619E-002
   3290.43014   8.12061702E-002
   3289.09637   8.34868578E-002
   3287.76259   8.58768010E-002
   3286.42881   8.83830080E-002
   3285.09503   9.10130729E-002
   3283.76125   9.37752353E-002
   3282.42748   9.66784490E-002
   3281.09370   9.97324575E-002
   3279.75992   1.02947881E-001
   3278.42614   1.06336312E-001
   3277.09236   1.09910429E-001
   3275.75859   1.13684118E-001
   3274.42481   1.17672619E-001
   3273.09103   1.21892686E-001
   3271.75725   1.26362776E-001
   3270.42347   1.31103263E-001
   3269.08970   1.36136686E-001
   3267.75592   1.41488033E-001
   3266.42214   1.47185074E-001
   3265.08836   1.53258746E-001
   3263.75458   1.59743598E-001
   3262.42081   1.66678326E-001
   3261.08703   1.74106383E-001
   3259.75325   1.82076716E-001
   3258.41947   1.90644626E-001
   3257.08570   1.99872808E-001
   3255.75192   2.09832576E-001
   3254.41814   2.20605350E-001
   3253.08436   2.32284449E-001
   3251.75058   2.44977264E-001
   3250.41681   2.58807925E-001
   3249.08303   2.73920563E-001
   3247.74925   2.90483362E-001
   3246.41547   3.08693599E-001
   3245.08169   3.28783963E-001
   3243.74792   3.51030559E-001
   3242.41414   3.75763100E-001
   3241.08036   4.03378021E-001
   3239.74658   4.34355502E-001
   3238.41280   4.69281794E-001
   3237.07903   5.08878809E-001
   3235.74525   5.54043809E-001
   3234.41147   6.05903284E-001
   3233.07769   6.65887115E-001
   3231.74391   7.35832117E-001
   3230.41014   8.18128929E-001
   3229.07636   9.15933920E-001
   3227.74258   1.03348057E+000
   3226.40880   1.17654614E+000
   3225.07503   1.35316595E+000
   3223.74125   1.57475119E+000
   3222.40747   1.85787881E+000
   3221.07369   2.22722144E+000
   3219.73991   2.72043343E+000
   3218.40614   3.39636713E+000
   3217.07236   4.34863119E+000
   3215.73858   5.72586136E+000
   3214.40480   7.75085507E+000
   3213.07102   1.06827755E+001
   3211.73725   1.45074790E+001
   3210.40347   1.80505944E+001
   3209.06969   1.87869923E+001
   3207.73591   1.60650918E+001
   3206.40213   1.22440618E+001
   3205.06836   9.10570334E+000
   3203.73458   6.95253940E+000
   3202.40080   5.57019195E+000
   3201.06702   4.72566231E+000
   3199.73324   4.26599252E+000
   3198.39947   4.11173486E+000
   3197.06569   4.24017355E+000
   3195.73191   4.67113324E+000
   3194.39813   5.43459903E+000
   3193.06435   6.47860543E+000
   3191.73058   7.61893714E+000
   3190.39680   8.87566426E+000
   3189.06302   1.06223441E+001
   3187.72924   1.27744476E+001
   3186.39547   1.40179730E+001
   3185.06169   1.29716146E+001
   3183.72791   1.04511453E+001
   3182.39413   8.04920955E+000
   3181.06035   6.35568317E+000
   3179.72658   5.33085665E+000
   3178.39280   4.83266993E+000
   3177.05902   4.77924380E+000
   3175.72524   5.17158107E+000
   3174.39146   6.08070833E+000
   3173.05769   7.56627506E+000
   3171.72391   9.36953175E+000
   3170.39013   1.04669976E+001
   3169.05635   9.79886427E+000
   3167.72257   7.86953504E+000
   3166.38880   5.87743082E+000
   3165.05502   4.35118603E+000
   3163.72124   3.28759755E+000
   3162.38746   2.55548799E+000
   3161.05368   2.04227824E+000
   3159.71991   1.67254277E+000
   3158.38613   1.39853912E+000
   3157.05235   1.19007916E+000
   3155.71857   1.02772388E+000
   3154.38479   8.98645889E-001
   3153.05102   7.94160972E-001
   3151.71724   7.08242672E-001
   3150.38346   6.36611449E-001
   3149.04968   5.76163405E-001
   3147.71591   5.24603605E-001
   3146.38213   4.80205354E-001
   3145.04835   4.41648751E-001
   3143.71457   4.07910225E-001
   3142.38079   3.78185547E-001
   3141.04702   3.51835235E-001
   3139.71324   3.28345228E-001
   3138.37946   3.07298136E-001
   3137.04568   2.88351935E-001
   3135.71190   2.71223977E-001
   3134.37813   2.55678857E-001
   3133.04435   2.41519093E-001
   3131.71057   2.28577905E-001
   3130.37679   2.16713568E-001
   3129.04301   2.05804942E-001
   3127.70924   1.95747929E-001
   3126.37546   1.86452616E-001
   3125.04168   1.77840979E-001
   3123.70790   1.69845009E-001
   3122.37412   1.62405177E-001
   3121.04035   1.55469176E-001
   3119.70657   1.48990868E-001
   3118.37279   1.42929422E-001
   3117.03901   1.37248579E-001
   3115.70524   1.31916040E-001
   3114.37146   1.26902951E-001
   3113.03768   1.22183457E-001
   3111.70390   1.17734336E-001
   3110.37012   1.13534673E-001
   3109.03635   1.09565584E-001
   3107.70257   1.05809983E-001
   3106.36879   1.02252376E-001
   3105.03501   9.88786800E-002
   3103.70123   9.56760724E-002
   3102.36746   9.26328533E-002
   3101.03368   8.97383284E-002
   3099.69990   8.69827051E-002
   3098.36612   8.43570009E-002
   3097.03234   8.18529634E-002
   3095.69857   7.94629984E-002
   3094.36479   7.71801075E-002
   3093.03101   7.49978315E-002
   3091.69723   7.29102004E-002
   3090.36345   7.09116894E-002
   3089.02968   6.89971786E-002
   3087.69590   6.71619173E-002
   3086.36212   6.54014923E-002
   3085.02834   6.37117990E-002
   3083.69456   6.20890153E-002
   3082.36079   6.05295783E-002
   3081.02701   5.90301634E-002
   3079.69323   5.75876649E-002
   3078.35945   5.61991788E-002
   3077.02568   5.48619869E-002
   3075.69190   5.35735429E-002
   3074.35812   5.23314587E-002
   3073.02434   5.11334933E-002
   3071.69056   4.99775416E-002
   3070.35679   4.88616241E-002
   3069.02301   4.77838787E-002
   3067.68923   4.67425518E-002
   3066.35545   4.57359906E-002
   3065.02167   4.47626367E-002
   3063.68790   4.38210191E-002
   3062.35412   4.29097485E-002
   3061.02034   4.20275119E-002
   3059.68656   4.11730675E-002
   3058.35278   4.03452400E-002
   3057.01901   3.95429166E-002
   3055.68523   3.87650425E-002
   3054.35145   3.80106180E-002
   3053.01767   3.72786942E-002
   3051.68389   3.65683705E-002
   3050.35012   3.58787916E-002
   3049.01634   3.52091445E-002
   3047.68256   3.45586561E-002
   3046.34878   3.39265908E-002
   3045.01501   3.33122487E-002
   3043.68123   3.27149630E-002
   3042.34745   3.21340982E-002
   3041.01367   3.15690487E-002
   3039.67989   3.10192367E-002
   3038.34612   3.04841110E-002
   3037.01234   2.99631454E-002
   3035.67856   2.94558370E-002
   3034.34478   2.89617056E-002
   3033.01100   2.84802921E-002
   3031.67723   2.80111573E-002
   3030.34345   2.75538811E-002
   3029.00967   2.71080613E-002
   3027.67589   2.66733130E-002
   3026.34211   2.62492672E-002
   3025.00834   2.58355705E-002
   3023.67456   2.54318842E-002
   3022.34078   2.50378832E-002
   3021.00700   2.46532558E-002
   3019.67322   2.42777028E-002
   3018.33945   2.39109371E-002
   3017.00567   2.35526828E-002
   3015.67189   2.32026750E-002
   3014.33811   2.28606589E-002
   3013.00433   2.25263899E-002
   3011.67056   2.21996324E-002
   3010.33678   2.18801600E-002
   3009.00300   2.15677548E-002
   3007.66922   2.12622070E-002
   3006.33545   2.09633148E-002
   3005.00167   2.06708836E-002
   3003.66789   2.03847260E-002
   3002.33411   2.01046614E-002
   3001.00033   1.98305159E-002
   2999.66656   1.95621215E-002
   2998.33278   1.92993163E-002
   2996.99900   1.90419442E-002
   2995.66522   1.87898544E-002
   2994.33144   1.85429016E-002
   2992.99767   1.83009452E-002
   2991.66389   1.80638496E-002
   2990.33011   1.78314837E-002
   2988.99633   1.76037210E-002
   2987.66255   1.73804390E-002
   2986.32878   1.71615195E-002
   2984.99500   1.69468481E-002
   2983.66122   1.67363142E-002
   2982.32744   1.65298107E-002
   2980.99366   1.63272341E-002
   2979.65989   1.61284842E-002
   2978.32611   1.59334639E-002
   2976.99233   1.57420794E-002
   2975.65855   1.55542396E-002
   2974.32477   1.53698565E-002
   2972.99100   1.51888446E-002
   2971.65722   1.50111213E-002
   2970.32344   1.48366062E-002
   2968.98966   1.46652218E-002
   2967.65589   1.44968926E-002
   2966.32211   1.43315454E-002
   2964.98833   1.41691095E-002
   2963.65455   1.40095159E-002
   2962.32077   1.38526980E-002
   2960.98700   1.36985908E-002
   2959.65322   1.35471316E-002
   2958.31944   1.33982591E-002
   2956.98566   1.32519142E-002
   2955.65188   1.31080392E-002
   2954.31811   1.29665782E-002
   2952.98433   1.28274767E-002
   2951.65055   1.26906819E-002
   2950.31677   1.25561425E-002
   2948.98299   1.24238085E-002
   2947.64922   1.22936315E-002
   2946.31544   1.21655642E-002
   2944.98166   1.20395607E-002
   2943.64788   1.19155763E-002
   2942.31410   1.17935676E-002
   2940.98033   1.16734924E-002
   2939.64655   1.15553095E-002
   2938.31277   1.14389788E-002
   2936.97899   1.13244614E-002
   2935.64522   1.12117193E-002
   2934.31144   1.11007156E-002
   2932.97766   1.09914143E-002
   2931.64388   1.08837803E-002
   2930.31010   1.07777795E-002
   2928.97633   1.06733786E-002
   2927.64255   1.05705452E-002
   2926.30877   1.04692476E-002
   2924.97499   1.03694551E-002
   2923.64121   1.02711377E-002
   2922.30744   1.01742660E-002
   2920.97366   1.00788116E-002
   2919.63988   9.98474656E-003
   2918.30610   9.89204374E-003
   2916.97232   9.80067667E-003
   2915.63855   9.71061949E-003
   2914.30477   9.62184699E-003
   2912.97099   9.53433457E-003
   2911.63721   9.44805821E-003
   2910.30343   9.36299447E-003
   2908.96966   9.27912046E-003
   2907.63588   9.19641384E-003
   2906.30210   9.11485280E-003
   2904.96832   9.03441604E-003
   2903.63454   8.95508273E-003
   2902.30077   8.87683257E-003
   2900.96699   8.79964569E-003
   2899.63321   8.72350270E-003
   2898.29943   8.64838465E-003
   2896.96566   8.57427300E-003
   2895.63188   8.50114967E-003
   2894.29810   8.42899695E-003
   2892.96432   8.35779756E-003
   2891.63054   8.28753458E-003
   2890.29677   8.21819148E-003
   2888.96299   8.14975209E-003
   2887.62921   8.08220060E-003
   2886.29543   8.01552156E-003
   2884.96165   7.94969984E-003
   2883.62788   7.88472063E-003
   2882.29410   7.82056948E-003
   2880.96032   7.75723221E-003
   2879.62654   7.69469497E-003
   2878.29276   7.63294419E-003
   2876.95899   7.57196660E-003
   2875.62521   7.51174922E-003
   2874.29143   7.45227932E-003
   2872.95765   7.39354444E-003
   2871.62387   7.33553241E-003
   2870.29010   7.27823128E-003
   2868.95632   7.22162937E-003
   2867.62254   7.16571523E-003
   2866.28876   7.11047765E-003
   2864.95498   7.05590564E-003
   2863.62121   7.00198845E-003
   2862.28743   6.94871553E-003
   2860.95365   6.89607656E-003
   2859.61987   6.84406143E-003
   2858.28610   6.79266021E-003
   2856.95232   6.74186318E-003
   2855.61854   6.69166083E-003
   2854.28476   6.64204382E-003
   2852.95098   6.59300300E-003
   2851.61721   6.54452938E-003
   2850.28343   6.49661419E-003
   2848.94965   6.44924879E-003
   2847.61587   6.40242473E-003
   2846.28209   6.35613371E-003
   2844.94832   6.31036760E-003
   2843.61454   6.26511842E-003
   2842.28076   6.22037834E-003
   2840.94698   6.17613969E-003
   2839.61320   6.13239495E-003
   2838.27943   6.08913671E-003
   2836.94565   6.04635773E-003
   2835.61187   6.00405090E-003
   2834.27809   5.96220924E-003
   2832.94431   5.92082588E-003
   2831.61054   5.87989412E-003
   2830.27676   5.83940735E-003
   2828.94298   5.79935909E-003
   2827.60920   5.75974299E-003
   2826.27543   5.72055278E-003
   2824.94165   5.68178236E-003
   2823.60787   5.64342570E-003
   2822.27409   5.60547688E-003
   2820.94031   5.56793010E-003
   2819.60654   5.53077967E-003
   2818.27276   5.49401998E-003
   2816.93898   5.45764553E-003
   2815.60520   5.42165092E-003
   2814.27142   5.38603086E-003
   2812.93765   5.35078011E-003
   2811.60387   5.31589357E-003
   2810.27009   5.28136619E-003
   2808.93631   5.24719304E-003
   2807.60253   5.21336925E-003
   2806.26876   5.17989006E-003
   2804.93498   5.14675076E-003
   2803.60120   5.11394675E-003
   2802.26742   5.08147349E-003
   2800.93364   5.04932653E-003
   2799.59987   5.01750148E-003
   2798.26609   4.98599404E-003
   2796.93231   4.95479997E-003
   2795.59853   4.92391512E-003
   2794.26475   4.89333539E-003
   2792.93098   4.86305676E-003
   2791.59720   4.83307526E-003
   2790.26342   4.80338700E-003
   2788.92964   4.77398816E-003
   2787.59587   4.74487498E-003
   2786.26209   4.71604375E-003
   2784.92831   4.68749082E-003
   2783.59453   4.65921261E-003
   2782.26075   4.63120561E-003
   2780.92698   4.60346633E-003
   2779.59320   4.57599138E-003
   2778.25942   4.54877738E-003
   2776.92564   4.52182105E-003
   2775.59186   4.49511912E-003
   2774.25809   4.46866840E-003
   2772.92431   4.44246575E-003
   2771.59053   4.41650805E-003
   2770.25675   4.39079228E-003
   2768.92297   4.36531541E-003
   2767.58920   4.34007450E-003
   2766.25542   4.31506664E-003
   2764.92164   4.29028897E-003
   2763.58786   4.26573867E-003
   2762.25408   4.24141296E-003
   2760.92031   4.21730912E-003
   2759.58653   4.19342444E-003
   2758.25275   4.16975629E-003
   2756.91897   4.14630206E-003
   2755.58520   4.12305916E-003
   2754.25142   4.10002509E-003
   2752.91764   4.07719734E-003
   2751.58386   4.05457346E-003
   2750.25008   4.03215104E-003
   2748.91631   4.00992769E-003
   2747.58253   3.98790107E-003
   2746.24875   3.96606887E-003
   2744.91497   3.94442881E-003
   2743.58119   3.92297865E-003
   2742.24742   3.90171618E-003
   2740.91364   3.88063923E-003
   2739.57986   3.85974565E-003
   2738.24608   3.83903333E-003
   2736.91230   3.81850019E-003
   2735.57853   3.79814417E-003
   2734.24475   3.77796325E-003
   2732.91097   3.75795544E-003
   2731.57719   3.73811878E-003
   2730.24341   3.71845133E-003
   2728.90964   3.69895118E-003
   2727.57586   3.67961645E-003
   2726.24208   3.66044528E-003
   2724.90830   3.64143586E-003
   2723.57452   3.62258637E-003
   2722.24075   3.60389505E-003
   2720.90697   3.58536014E-003
   2719.57319   3.56697990E-003
   2718.23941   3.54875265E-003
   2716.90564   3.53067671E-003
   2715.57186   3.51275041E-003
   2714.23808   3.49497213E-003
   2712.90430   3.47734025E-003
   2711.57052   3.45985319E-003
   2710.23675   3.44250938E-003
   2708.90297   3.42530729E-003
   2707.56919   3.40824538E-003
   2706.23541   3.39132215E-003
   2704.90163   3.37453613E-003
   2703.56786   3.35788585E-003
   2702.23408   3.34136987E-003
   2700.90030   3.32498677E-003
   2699.56652   3.30873514E-003
   2698.23274   3.29261361E-003
   2696.89897   3.27662080E-003
   2695.56519   3.26075537E-003
   2694.23141   3.24501599E-003
   2692.89763   3.22940135E-003
   2691.56385   3.21391015E-003
   2690.23008   3.19854113E-003
   2688.89630   3.18329300E-003
   2687.56252   3.16816454E-003
   2686.22874   3.15315452E-003
   2684.89496   3.13826173E-003
   2683.56119   3.12348496E-003
   2682.22741   3.10882304E-003
   2680.89363   3.09427481E-003
   2679.55985   3.07983912E-003
   2678.22608   3.06551483E-003
   2676.89230   3.05130082E-003
   2675.55852   3.03719599E-003
   2674.22474   3.02319925E-003
   2672.89096   3.00930951E-003
   2671.55719   2.99552572E-003
   2670.22341   2.98184682E-003
   2668.88963   2.96827178E-003
   2667.55585   2.95479958E-003
   2666.22207   2.94142920E-003
   2664.88830   2.92815965E-003
   2663.55452   2.91498994E-003
   2662.22074   2.90191910E-003
   2660.88696   2.88894617E-003
   2659.55318   2.87607019E-003
   2658.21941   2.86329024E-003
   2656.88563   2.85060539E-003
   2655.55185   2.83801471E-003
   2654.21807   2.82551732E-003
   2652.88429   2.81311232E-003
   2651.55052   2.80079883E-003
   2650.21674   2.78857598E-003
   2648.88296   2.77644290E-003
   2647.54918   2.76439876E-003
   2646.21541   2.75244272E-003
   2644.88163   2.74057394E-003
   2643.54785   2.72879161E-003
   2642.21407   2.71709491E-003
   2640.88029   2.70548307E-003
   2639.54652   2.69395527E-003
   2638.21274   2.68251075E-003
   2636.87896   2.67114873E-003
   2635.54518   2.65986846E-003
   2634.21140   2.64866918E-003
   2632.87763   2.63755015E-003
   2631.54385   2.62651064E-003
   2630.21007   2.61554992E-003
   2628.87629   2.60466728E-003
   2627.54251   2.59386200E-003
   2626.20874   2.58313340E-003
   2624.87496   2.57248076E-003
   2623.54118   2.56190343E-003
   2622.20740   2.55140071E-003
   2620.87362   2.54097194E-003
   2619.53985   2.53061646E-003
   2618.20607   2.52033362E-003
   2616.87229   2.51012278E-003
   2615.53851   2.49998330E-003
   2614.20473   2.48991454E-003
   2612.87096   2.47991590E-003
   2611.53718   2.46998674E-003
   2610.20340   2.46012647E-003
   2608.86962   2.45033448E-003
   2607.53585   2.44061018E-003
   2606.20207   2.43095298E-003
   2604.86829   2.42136230E-003
   2603.53451   2.41183757E-003
   2602.20073   2.40237821E-003
   2600.86696   2.39298368E-003
   2599.53318   2.38365341E-003
   2598.19940   2.37438685E-003
   2596.86562   2.36518347E-003
   2595.53184   2.35604272E-003
   2594.19807   2.34696407E-003
   2592.86429   2.33794701E-003
   2591.53051   2.32899102E-003
   2590.19673   2.32009557E-003
   2588.86295   2.31126017E-003
   2587.52918   2.30248431E-003
   2586.19540   2.29376749E-003
   2584.86162   2.28510924E-003
   2583.52784   2.27650905E-003
   2582.19406   2.26796646E-003
   2580.86029   2.25948098E-003
   2579.52651   2.25105216E-003
   2578.19273   2.24267951E-003
   2576.85895   2.23436260E-003
   2575.52518   2.22610096E-003
   2574.19140   2.21789414E-003
   2572.85762   2.20974170E-003
   2571.52384   2.20164321E-003
   2570.19006   2.19359822E-003
   2568.85629   2.18560630E-003
   2567.52251   2.17766704E-003
   2566.18873   2.16978001E-003
   2564.85495   2.16194480E-003
   2563.52117   2.15416099E-003
   2562.18740   2.14642818E-003
   2560.85362   2.13874596E-003
   2559.51984   2.13111394E-003
   2558.18606   2.12353173E-003
   2556.85228   2.11599893E-003
   2555.51851   2.10851515E-003
   2554.18473   2.10108002E-003
   2552.85095   2.09369316E-003
   2551.51717   2.08635420E-003
   2550.18339   2.07906276E-003
   2548.84962   2.07181848E-003
   2547.51584   2.06462100E-003
   2546.18206   2.05746996E-003
   2544.84828   2.05036501E-003
   2543.51450   2.04330579E-003
   2542.18073   2.03629196E-003
   2540.84695   2.02932318E-003
   2539.51317   2.02239911E-003
   2538.17939   2.01551941E-003
   2536.84562   2.00868375E-003
   2535.51184   2.00189179E-003
   2534.17806   1.99514322E-003
   2532.84428   1.98843772E-003
   2531.51050   1.98177496E-003
   2530.17673   1.97515462E-003
   2528.84295   1.96857640E-003
   2527.50917   1.96203999E-003
   2526.17539   1.95554508E-003
   2524.84161   1.94909137E-003
   2523.50784   1.94267856E-003
   2522.17406   1.93630636E-003
   2520.84028   1.92997446E-003
   2519.50650   1.92368258E-003
   2518.17272   1.91743044E-003
   2516.83895   1.91121774E-003
   2515.50517   1.90504422E-003
   2514.17139   1.89890958E-003
   2512.83761   1.89281355E-003
   2511.50383   1.88675586E-003
   2510.17006   1.88073625E-003
   2508.83628   1.87475443E-003
   2507.50250   1.86881016E-003
   2506.16872   1.86290316E-003
   2504.83494   1.85703318E-003
   2503.50117   1.85119996E-003
   2502.16739   1.84540325E-003
   2500.83361   1.83964280E-003
   2499.49983   1.83391835E-003
   2498.16606   1.82822966E-003
   2496.83228   1.82257649E-003
   2495.49850   1.81695860E-003
   2494.16472   1.81137574E-003
   2492.83094   1.80582769E-003
   2491.49717   1.80031420E-003
   2490.16339   1.79483505E-003
   2488.82961   1.78939001E-003
   2487.49583   1.78397885E-003
   2486.16205   1.77860134E-003
   2484.82828   1.77325726E-003
   2483.49450   1.76794640E-003
   2482.16072   1.76266853E-003
   2480.82694   1.75742344E-003
   2479.49316   1.75221092E-003
   2478.15939   1.74703076E-003
   2476.82561   1.74188274E-003
   2475.49183   1.73676665E-003
   2474.15805   1.73168231E-003
   2472.82427   1.72662949E-003
   2471.49050   1.72160800E-003
   2470.15672   1.71661765E-003
   2468.82294   1.71165823E-003
   2467.48916   1.70672955E-003
   2466.15539   1.70183142E-003
   2464.82161   1.69696364E-003
   2463.48783   1.69212604E-003
   2462.15405   1.68731841E-003
   2460.82027   1.68254058E-003
   2459.48650   1.67779236E-003
   2458.15272   1.67307358E-003
   2456.81894   1.66838404E-003
   2455.48516   1.66372358E-003
   2454.15138   1.65909202E-003
   2452.81761   1.65448919E-003
   2451.48383   1.64991491E-003
   2450.15005   1.64536900E-003
   2448.81627   1.64085132E-003
   2447.48249   1.63636168E-003
   2446.14872   1.63189991E-003
   2444.81494   1.62746587E-003
   2443.48116   1.62305938E-003
   2442.14738   1.61868029E-003
   2440.81360   1.61432844E-003
   2439.47983   1.61000366E-003
   2438.14605   1.60570581E-003
   2436.81227   1.60143473E-003
   2435.47849   1.59719027E-003
   2434.14471   1.59297228E-003
   2432.81094   1.58878060E-003
   2431.47716   1.58461510E-003
   2430.14338   1.58047562E-003
   2428.80960   1.57636202E-003
   2427.47583   1.57227417E-003
   2426.14205   1.56821191E-003
   2424.80827   1.56417510E-003
   2423.47449   1.56016362E-003
   2422.14071   1.55617732E-003
   2420.80694   1.55221606E-003
   2419.47316   1.54827972E-003
   2418.13938   1.54436815E-003
   2416.80560   1.54048124E-003
   2415.47182   1.53661884E-003
   2414.13805   1.53278084E-003
   2412.80427   1.52896709E-003
   2411.47049   1.52517749E-003
   2410.13671   1.52141190E-003
   2408.80293   1.51767020E-003
   2407.46916   1.51395226E-003
   2406.13538   1.51025798E-003
   2404.80160   1.50658723E-003
   2403.46782   1.50293989E-003
   2402.13404   1.49931584E-003
   2400.80027   1.49571497E-003
   2399.46649   1.49213718E-003
   2398.13271   1.48858233E-003
   2396.79893   1.48505033E-003
   2395.46516   1.48154106E-003
   2394.13138   1.47805442E-003
   2392.79760   1.47459029E-003
   2391.46382   1.47114858E-003
   2390.13004   1.46772917E-003
   2388.79627   1.46433196E-003
   2387.46249   1.46095685E-003
   2386.12871   1.45760374E-003
   2384.79493   1.45427253E-003
   2383.46115   1.45096311E-003
   2382.12738   1.44767540E-003
   2380.79360   1.44440929E-003
   2379.45982   1.44116468E-003
   2378.12604   1.43794150E-003
   2376.79226   1.43473963E-003
   2375.45849   1.43155899E-003
   2374.12471   1.42839949E-003
   2372.79093   1.42526104E-003
   2371.45715   1.42214354E-003
   2370.12337   1.41904692E-003
   2368.78960   1.41597108E-003
   2367.45582   1.41291595E-003
   2366.12204   1.40988142E-003
   2364.78826   1.40686743E-003
   2363.45448   1.40387389E-003
   2362.12071   1.40090072E-003
   2360.78693   1.39794784E-003
   2359.45315   1.39501516E-003
   2358.11937   1.39210262E-003
   2356.78560   1.38921014E-003
   2355.45182   1.38633763E-003
   2354.11804   1.38348503E-003
   2352.78426   1.38065226E-003
   2351.45048   1.37783925E-003
   2350.11671   1.37504593E-003
   2348.78293   1.37227222E-003
   2347.44915   1.36951806E-003
   2346.11537   1.36678338E-003
   2344.78159   1.36406811E-003
   2343.44782   1.36137218E-003
   2342.11404   1.35869554E-003
   2340.78026   1.35603811E-003
   2339.44648   1.35339983E-003
   2338.11270   1.35078064E-003
   2336.77893   1.34818047E-003
   2335.44515   1.34559928E-003
   2334.11137   1.34303699E-003
   2332.77759   1.34049355E-003
   2331.44381   1.33796891E-003
   2330.11004   1.33546300E-003
   2328.77626   1.33297577E-003
   2327.44248   1.33050716E-003
   2326.10870   1.32805713E-003
   2324.77492   1.32562562E-003
   2323.44115   1.32321257E-003
   2322.10737   1.32081795E-003
   2320.77359   1.31844169E-003
   2319.43981   1.31608375E-003
   2318.10604   1.31374408E-003
   2316.77226   1.31142264E-003
   2315.43848   1.30911938E-003
   2314.10470   1.30683425E-003
   2312.77092   1.30456721E-003
   2311.43715   1.30231822E-003
   2310.10337   1.30008724E-003
   2308.76959   1.29787422E-003
   2307.43581   1.29567912E-003
   2306.10203   1.29350192E-003
   2304.76826   1.29134256E-003
   2303.43448   1.28920101E-003
   2302.10070   1.28707724E-003
   2300.76692   1.28497121E-003
   2299.43314   1.28288288E-003
   2298.09937   1.28081223E-003
   2296.76559   1.27875922E-003
   2295.43181   1.27672381E-003
   2294.09803   1.27470599E-003
   2292.76425   1.27270572E-003
   2291.43048   1.27072296E-003
   2290.09670   1.26875770E-003
   2288.76292   1.26680991E-003
   2287.42914   1.26487956E-003
   2286.09537   1.26296663E-003
   2284.76159   1.26107110E-003
   2283.42781   1.25919293E-003
   2282.09403   1.25733212E-003
   2280.76025   1.25548863E-003
   2279.42648   1.25366245E-003
   2278.09270   1.25185357E-003
   2276.75892   1.25006196E-003
   2275.42514   1.24828761E-003
   2274.09136   1.24653050E-003
   2272.75759   1.24479061E-003
   2271.42381   1.24306794E-003
   2270.09003   1.24136247E-003
   2268.75625   1.23967419E-003
   2267.42247   1.23800309E-003
   2266.08870   1.23634916E-003
   2264.75492   1.23471239E-003
   2263.42114   1.23309277E-003
   2262.08736   1.23149030E-003
   2260.75358   1.22990497E-003
   2259.41981   1.22833678E-003
   2258.08603   1.22678572E-003
   2256.75225   1.22525180E-003
   2255.41847   1.22373500E-003
   2254.08469   1.22223533E-003
   2252.75092   1.22075280E-003
   2251.41714   1.21928739E-003
   2250.08336   1.21783913E-003
   2248.74958   1.21640800E-003
   2247.41581   1.21499401E-003
   2246.08203   1.21359718E-003
   2244.74825   1.21221751E-003
   2243.41447   1.21085501E-003
   2242.08069   1.20950968E-003
   2240.74692   1.20818154E-003
   2239.41314   1.20687060E-003
   2238.07936   1.20557687E-003
   2236.74558   1.20430037E-003
   2235.41180   1.20304111E-003
   2234.07803   1.20179911E-003
   2232.74425   1.20057438E-003
   2231.41047   1.19936695E-003
   2230.07669   1.19817684E-003
   2228.74291   1.19700406E-003
   2227.40914   1.19584864E-003
   2226.07536   1.19471060E-003
   2224.74158   1.19358998E-003
   2223.40780   1.19248678E-003
   2222.07402   1.19140105E-003
   2220.74025   1.19033280E-003
   2219.40647   1.18928207E-003
   2218.07269   1.18824890E-003
   2216.73891   1.18723331E-003
   2215.40514   1.18623533E-003
   2214.07136   1.18525501E-003
   2212.73758   1.18429237E-003
   2211.40380   1.18334747E-003
   2210.07002   1.18242032E-003
   2208.73625   1.18151099E-003
   2207.40247   1.18061950E-003
   2206.06869   1.17974590E-003
   2204.73491   1.17889024E-003
   2203.40113   1.17805256E-003
   2202.06736   1.17723291E-003
   2200.73358   1.17643134E-003
   2199.39980   1.17564789E-003
   2198.06602   1.17488263E-003
   2196.73224   1.17413560E-003
   2195.39847   1.17340687E-003
   2194.06469   1.17269648E-003
   2192.73091   1.17200449E-003
   2191.39713   1.17133096E-003
   2190.06335   1.17067597E-003
   2188.72958   1.17003956E-003
   2187.39580   1.16942180E-003
   2186.06202   1.16882276E-003
   2184.72824   1.16824251E-003
   2183.39446   1.16768111E-003
   2182.06069   1.16713864E-003
   2180.72691   1.16661517E-003
   2179.39313   1.16611077E-003
   2178.05935   1.16562553E-003
   2176.72558   1.16515952E-003
   2175.39180   1.16471281E-003
   2174.05802   1.16428550E-003
   2172.72424   1.16387766E-003
   2171.39046   1.16348938E-003
   2170.05669   1.16312075E-003
   2168.72291   1.16277186E-003
   2167.38913   1.16244279E-003
   2166.05535   1.16213365E-003
   2164.72157   1.16184453E-003
   2163.38780   1.16157552E-003
   2162.05402   1.16132673E-003
   2160.72024   1.16109826E-003
   2159.38646   1.16089020E-003
   2158.05268   1.16070267E-003
   2156.71891   1.16053578E-003
   2155.38513   1.16038963E-003
   2154.05135   1.16026434E-003
   2152.71757   1.16016002E-003
   2151.38379   1.16007679E-003
   2150.05002   1.16001477E-003
   2148.71624   1.15997408E-003
   2147.38246   1.15995484E-003
   2146.04868   1.15995719E-003
   2144.71490   1.15998125E-003
   2143.38113   1.16002716E-003
   2142.04735   1.16009504E-003
   2140.71357   1.16018504E-003
   2139.37979   1.16029729E-003
   2138.04602   1.16043194E-003
   2136.71224   1.16058913E-003
   2135.37846   1.16076901E-003
   2134.04468   1.16097173E-003
   2132.71090   1.16119745E-003
   2131.37713   1.16144632E-003
   2130.04335   1.16171850E-003
   2128.70957   1.16201415E-003
   2127.37579   1.16233344E-003
   2126.04201   1.16267654E-003
   2124.70824   1.16304362E-003
   2123.37446   1.16343485E-003
   2122.04068   1.16385042E-003
   2120.70690   1.16429050E-003
   2119.37312   1.16475528E-003
   2118.03935   1.16524494E-003
   2116.70557   1.16575969E-003
   2115.37179   1.16629971E-003
   2114.03801   1.16686520E-003
   2112.70423   1.16745637E-003
   2111.37046   1.16807343E-003
   2110.03668   1.16871657E-003
   2108.70290   1.16938603E-003
   2107.36912   1.17008201E-003
   2106.03535   1.17080474E-003
   2104.70157   1.17155444E-003
   2103.36779   1.17233135E-003
   2102.03401   1.17313570E-003
   2100.70023   1.17396772E-003
   2099.36646   1.17482767E-003
   2098.03268   1.17571578E-003
   2096.69890   1.17663232E-003
   2095.36512   1.17757753E-003
   2094.03134   1.17855169E-003
   2092.69757   1.17955505E-003
   2091.36379   1.18058788E-003
   2090.03001   1.18165047E-003
   2088.69623   1.18274310E-003
   2087.36245   1.18386604E-003
   2086.02868   1.18501960E-003
   2084.69490   1.18620407E-003
   2083.36112   1.18741975E-003
   2082.02734   1.18866695E-003
   2080.69356   1.18994599E-003
   2079.35979   1.19125718E-003
   2078.02601   1.19260085E-003
   2076.69223   1.19397734E-003
   2075.35845   1.19538697E-003
   2074.02467   1.19683009E-003
   2072.69090   1.19830706E-003
   2071.35712   1.19981823E-003
   2070.02334   1.20136396E-003
   2068.68956   1.20294463E-003
   2067.35579   1.20456061E-003
   2066.02201   1.20621228E-003
   2064.68823   1.20790004E-003
   2063.35445   1.20962429E-003
   2062.02067   1.21138543E-003
   2060.68690   1.21318388E-003
   2059.35312   1.21502005E-003
   2058.01934   1.21689438E-003
   2056.68556   1.21880731E-003
   2055.35178   1.22075928E-003
   2054.01801   1.22275075E-003
   2052.68423   1.22478218E-003
   2051.35045   1.22685404E-003
   2050.01667   1.22896681E-003
   2048.68289   1.23112099E-003
   2047.34912   1.23331707E-003
   2046.01534   1.23555556E-003
   2044.68156   1.23783699E-003
   2043.34778   1.24016188E-003
   2042.01400   1.24253078E-003
   2040.68023   1.24494423E-003
   2039.34645   1.24740279E-003
   2038.01267   1.24990703E-003
   2036.67889   1.25245755E-003
   2035.34512   1.25505493E-003
   2034.01134   1.25769979E-003
   2032.67756   1.26039273E-003
   2031.34378   1.26313439E-003
   2030.01000   1.26592542E-003
   2028.67623   1.26876646E-003
   2027.34245   1.27165820E-003
   2026.00867   1.27460131E-003
   2024.67489   1.27759648E-003
   2023.34111   1.28064444E-003
   2022.00734   1.28374590E-003
   2020.67356   1.28690161E-003
   2019.33978   1.29011232E-003
   2018.00600   1.29337879E-003
   2016.67222   1.29670182E-003
   2015.33845   1.30008222E-003
   2014.00467   1.30352079E-003
   2012.67089   1.30701837E-003
   2011.33711   1.31057582E-003
   2010.00333   1.31419402E-003
   2008.66956   1.31787384E-003
   2007.33578   1.32161619E-003
   2006.00200   1.32542202E-003
   2004.66822   1.32929225E-003
   2003.33444   1.33322787E-003
   2002.00067   1.33722985E-003
   2000.66689   1.34129921E-003
   1999.33311   1.34543698E-003
   1997.99933   1.34964421E-003
   1996.66556   1.35392197E-003
   1995.33178   1.35827138E-003
   1993.99800   1.36269354E-003
   1992.66422   1.36718961E-003
   1991.33044   1.37176077E-003
   1989.99667   1.37640820E-003
   1988.66289   1.38113315E-003
   1987.32911   1.38593685E-003
   1985.99533   1.39082060E-003
   1984.66155   1.39578570E-003
   1983.32778   1.40083350E-003
   1981.99400   1.40596535E-003
   1980.66022   1.41118268E-003
   1979.32644   1.41648690E-003
   1977.99266   1.42187948E-003
   1976.65889   1.42736193E-003
   1975.32511   1.43293578E-003
   1973.99133   1.43860260E-003
   1972.65755   1.44436399E-003
   1971.32377   1.45022161E-003
   1969.99000   1.45617713E-003
   1968.65622   1.46223229E-003
   1967.32244   1.46838884E-003
   1965.98866   1.47464859E-003
   1964.65488   1.48101339E-003
   1963.32111   1.48748514E-003
   1961.98733   1.49406578E-003
   1960.65355   1.50075729E-003
   1959.31977   1.50756171E-003
   1957.98600   1.51448113E-003
   1956.65222   1.52151769E-003
   1955.31844   1.52867358E-003
   1953.98466   1.53595104E-003
   1952.65088   1.54335238E-003
   1951.31711   1.55087995E-003
   1949.98333   1.55853617E-003
   1948.64955   1.56632354E-003
   1947.31577   1.57424459E-003
   1945.98199   1.58230192E-003
   1944.64822   1.59049823E-003
   1943.31444   1.59883626E-003
   1941.98066   1.60731882E-003
   1940.64688   1.61594880E-003
   1939.31310   1.62472919E-003
   1937.97933   1.63366302E-003
   1936.64555   1.64275342E-003
   1935.31177   1.65200360E-003
   1933.97799   1.66141687E-003
   1932.64421   1.67099661E-003
   1931.31044   1.68074631E-003
   1929.97666   1.69066953E-003
   1928.64288   1.70076996E-003
   1927.30910   1.71105137E-003
   1925.97533   1.72151763E-003
   1924.64155   1.73217274E-003
   1923.30777   1.74302081E-003
   1921.97399   1.75406604E-003
   1920.64021   1.76531278E-003
   1919.30644   1.77676549E-003
   1917.97266   1.78842876E-003
   1916.63888   1.80030732E-003
   1915.30510   1.81240601E-003
   1913.97132   1.82472986E-003
   1912.63755   1.83728400E-003
   1911.30377   1.85007375E-003
   1909.96999   1.86310457E-003
   1908.63621   1.87638207E-003
   1907.30243   1.88991207E-003
   1905.96866   1.90370053E-003
   1904.63488   1.91775360E-003
   1903.30110   1.93207764E-003
   1901.96732   1.94667918E-003
   1900.63354   1.96156496E-003
   1899.29977   1.97674196E-003
   1897.96599   1.99221733E-003
   1896.63221   2.00799849E-003
   1895.29843   2.02409307E-003
   1893.96465   2.04050897E-003
   1892.63088   2.05725433E-003
   1891.29710   2.07433756E-003
   1889.96332   2.09176733E-003
   1888.62954   2.10955263E-003
   1887.29577   2.12770272E-003
   1885.96199   2.14622718E-003
   1884.62821   2.16513593E-003
   1883.29443   2.18443920E-003
   1881.96065   2.20414758E-003
   1880.62688   2.22427203E-003
   1879.29310   2.24482390E-003
   1877.95932   2.26581490E-003
   1876.62554   2.28725720E-003
   1875.29176   2.30916337E-003
   1873.95799   2.33154644E-003
   1872.62421   2.35441990E-003
   1871.29043   2.37779775E-003
   1869.95665   2.40169448E-003
   1868.62287   2.42612512E-003
   1867.28910   2.45110527E-003
   1865.95532   2.47665109E-003
   1864.62154   2.50277937E-003
   1863.28776   2.52950754E-003
   1861.95398   2.55685367E-003
   1860.62021   2.58483655E-003
   1859.28643   2.61347570E-003
   1857.95265   2.64279140E-003
   1856.61887   2.67280474E-003
   1855.28510   2.70353763E-003
   1853.95132   2.73501288E-003
   1852.61754   2.76725422E-003
   1851.28376   2.80028635E-003
   1849.94998   2.83413498E-003
   1848.61621   2.86882691E-003
   1847.28243   2.90439004E-003
   1845.94865   2.94085346E-003
   1844.61487   2.97824751E-003
   1843.28109   3.01660383E-003
   1841.94732   3.05595543E-003
   1840.61354   3.09633677E-003
   1839.27976   3.13778384E-003
   1837.94598   3.18033423E-003
   1836.61220   3.22402724E-003
   1835.27843   3.26890394E-003
   1833.94465   3.31500729E-003
   1832.61087   3.36238227E-003
   1831.27709   3.41107592E-003
   1829.94331   3.46113754E-003
   1828.60954   3.51261878E-003
   1827.27576   3.56557378E-003
   1825.94198   3.62005931E-003
   1824.60820   3.67613496E-003
   1823.27442   3.73386325E-003
   1821.94065   3.79330987E-003
   1820.60687   3.85454385E-003
   1819.27309   3.91763775E-003
   1817.93931   3.98266791E-003
   1816.60554   4.04971467E-003
   1815.27176   4.11886264E-003
   1813.93798   4.19020096E-003
   1812.60420   4.26382363E-003
   1811.27042   4.33982978E-003
   1809.93665   4.41832408E-003
   1808.60287   4.49941706E-003
   1807.26909   4.58322554E-003
   1805.93531   4.66987308E-003
   1804.60153   4.75949041E-003
   1803.26776   4.85221600E-003
   1801.93398   4.94819657E-003
   1800.60020   5.04758772E-003
   1799.26642   5.15055458E-003
   1797.93264   5.25727254E-003
   1796.59887   5.36792801E-003
   1795.26509   5.48271928E-003
   1793.93131   5.60185743E-003
   1792.59753   5.72556741E-003
   1791.26375   5.85408906E-003
   1789.92998   5.98767839E-003
   1788.59620   6.12660891E-003
   1787.26242   6.27117307E-003
   1785.92864   6.42168389E-003
   1784.59486   6.57847676E-003
   1783.26109   6.74191138E-003
   1781.92731   6.91237393E-003
   1780.59353   7.09027945E-003
   1779.25975   7.27607457E-003
   1777.92598   7.47024037E-003
   1776.59220   7.67329572E-003
   1775.25842   7.88580093E-003
   1773.92464   8.10836179E-003
   1772.59086   8.34163419E-003
   1771.25709   8.58632916E-003
   1769.92331   8.84321864E-003
   1768.58953   9.11314188E-003
   1767.25575   9.39701275E-003
   1765.92197   9.69582785E-003
   1764.58820   1.00106758E-002
   1763.25442   1.03427479E-002
   1761.92064   1.06933498E-002
   1760.58686   1.10639153E-002
   1759.25308   1.14560218E-002
   1757.91931   1.18714083E-002
   1756.58553   1.23119958E-002
   1755.25175   1.27799108E-002
   1753.91797   1.32775127E-002
   1752.58419   1.38074253E-002
   1751.25042   1.43725739E-002
   1749.91664   1.49762281E-002
   1748.58286   1.56220518E-002
   1747.24908   1.63141632E-002
   1745.91531   1.70572039E-002
   1744.58153   1.78564224E-002
   1743.24775   1.87177725E-002
   1741.91397   1.96480315E-002
   1740.58019   2.06549421E-002
   1739.24642   2.17473844E-002
   1737.91264   2.29355834E-002
   1736.57886   2.42313646E-002
   1735.24508   2.56484661E-002
   1733.91130   2.72029258E-002
   1732.57753   2.89135631E-002
   1731.24375   3.08025830E-002
   1729.90997   3.28963391E-002
   1728.57619   3.52263056E-002
   1727.24241   3.78303262E-002
   1725.90864   4.07542324E-002
   1724.57486   4.40539638E-002
   1723.24108   4.77983720E-002
   1721.90730   5.20729738E-002
   1720.57352   5.69850353E-002
   1719.23975   6.26705492E-002
   1717.90597   6.93039498E-002
   1716.57219   7.71118441E-002
   1715.23841   8.63927486E-002
   1713.90463   9.75459662E-002
   1712.57086   1.11114661E-001
   1711.23708   1.27851454E-001
   1709.90330   1.48820520E-001
   1708.56952   1.75560145E-001
   1707.23575   2.10347437E-001
   1705.90197   2.56637999E-001
   1704.56819   3.19805068E-001
   1703.23441   4.08371097E-001
   1701.90063   5.35925894E-001
   1700.56686   7.23363985E-001
   1699.23308   9.97749828E-001
   1697.89930   1.37142111E+000
   1696.56552   1.76577694E+000
   1695.23174   1.93923536E+000
   1693.89797   1.73267160E+000
   1692.56419   1.33769015E+000
   1691.23041   9.81204317E-001
   1689.89663   7.25697738E-001
   1688.56285   5.54853367E-001
   1687.22908   4.42206532E-001
   1685.89530   3.68189684E-001
   1684.56152   3.20462659E-001
   1683.22774   2.91704121E-001
   1681.89396   2.77883846E-001
   1680.56019   2.77274151E-001
   1679.22641   2.90041365E-001
   1677.89263   3.18313027E-001
   1676.55885   3.66735889E-001
   1675.22508   4.43628079E-001
   1673.89130   5.62675764E-001
   1672.55752   7.43716127E-001
   1671.22374   1.00475354E+000
   1669.88996   1.32103368E+000
   1668.55619   1.54619462E+000
   1667.22241   1.48721802E+000
   1665.88863   1.19861851E+000
   1664.55485   8.87600713E-001
   1663.22107   6.50225473E-001
   1661.88730   4.87678150E-001
   1660.55352   3.78928074E-001
   1659.21974   3.06051968E-001
   1657.88596   2.57363515E-001
   1656.55218   2.25940486E-001
   1655.21841   2.08130684E-001
   1653.88463   2.02709265E-001
   1652.55085   2.10563426E-001
   1651.21707   2.34404997E-001
   1649.88329   2.76657540E-001
   1648.54952   3.30412052E-001
   1647.21574   3.64079832E-001
   1645.88196   3.41185861E-001
   1644.54818   2.77005706E-001
   1643.21440   2.11721587E-001
   1641.88063   1.61968482E-001
   1640.54685   1.27069626E-001
   1639.21307   1.02702502E-001
   1637.87929   8.52983412E-002
   1636.54552   7.24889564E-002
   1635.21174   6.27759538E-002
   1633.87796   5.52085763E-002
   1632.54418   4.91711938E-002
   1631.21040   4.42547287E-002
   1629.87663   4.01799857E-002
   1628.54285   3.67514527E-002
   1627.20907   3.38289058E-002
   1625.87529   3.13095472E-002
   1624.54151   2.91165014E-002
   1623.20774   2.71912332E-002
   1621.87396   2.54884400E-002
   1620.54018   2.39725409E-002
   1619.20640   2.26152163E-002
   1617.87262   2.13936533E-002
   1616.53885   2.02892740E-002
   1615.20507   1.92868002E-002
   1613.87129   1.83735548E-002
   1612.53751   1.75389347E-002
   1611.20373   1.67740076E-002
   1609.86996   1.60712000E-002
   1608.53618   1.54240540E-002
   1607.20240   1.48270359E-002
   1605.86862   1.42753839E-002
   1604.53484   1.37649870E-002
   1603.20107   1.32922872E-002
   1601.86729   1.28542006E-002
   1600.53351   1.24480543E-002
   1599.19973   1.20715348E-002
   1597.86596   1.17226467E-002
   1596.53218   1.13996806E-002
   1595.19840   1.11011872E-002
   1593.86462   1.08259592E-002
   1592.53084   1.05730183E-002
   1591.19707   1.03416084E-002
   1589.86329   1.01311950E-002
   1588.52951   9.94147077E-003
   1587.19573   9.77236811E-003
   1585.86195   9.62408055E-003
   1584.52818   9.49709416E-003
   1583.19440   9.39223215E-003
   1581.86062   9.31071636E-003
   1580.52684   9.25425111E-003
   1579.19306   9.22513756E-003
   1577.85929   9.22642979E-003
   1576.52551   9.26214951E-003
   1575.19173   9.33758425E-003
   1573.85795   9.45970649E-003
   1572.52417   9.63777117E-003
   1571.19040   9.88418100E-003
   1569.85662   1.02157621E-002
   1568.52284   1.06556811E-002
   1567.18906   1.12363862E-002
   1565.85529   1.20042208E-002
   1564.52151   1.30268257E-002
   1563.18773   1.44052775E-002
   1561.85395   1.62943586E-002
   1560.52017   1.89366485E-002
   1559.18640   2.27186390E-002
   1557.85262   2.82536844E-002
   1556.51884   3.64550818E-002
   1555.18506   4.83521487E-002
   1553.85128   6.37288797E-002
   1552.51751   7.74469767E-002
   1551.18373   7.92969248E-002
   1549.84995   6.75303432E-002
   1548.51617   5.19137847E-002
   1547.18239   3.91993790E-002
   1545.84862   3.03546549E-002
   1544.51484   2.44487876E-002
   1543.18106   2.05124776E-002
   1541.84728   1.78767989E-002
   1540.51350   1.61237598E-002
   1539.17973   1.50001837E-002
   1537.84595   1.43570012E-002
   1536.51217   1.41133303E-002
   1535.17839   1.42374070E-002
   1533.84461   1.47388676E-002
   1532.51084   1.56699561E-002
   1531.17706   1.71359187E-002
   1529.84328   1.93176388E-002
   1528.50950   2.25130840E-002
   1527.17573   2.72079475E-002
   1525.84195   3.41833002E-002
   1524.50817   4.46222223E-002
   1523.17439   5.99335737E-002
   1521.84061   8.01798169E-002
   1520.50684   9.93757670E-002
   1519.17306   1.03866642E-001
   1517.83928   8.92033418E-002
   1516.50550   6.78484205E-002
   1515.17172   4.98804676E-002
   1513.83795   3.71630296E-002
   1512.50417   2.85260558E-002
   1511.17039   2.26165714E-002
   1509.83661   1.84761966E-002
   1508.50283   1.54941618E-002
   1507.16906   1.32878987E-002
   1505.83528   1.16149013E-002
   1504.50150   1.03180316E-002
   1503.16772   9.29291886E-003
   1501.83394   8.46851809E-003
   1500.50017   7.79533558E-003
   1499.16639   7.23814520E-003
   1497.83261   6.77137968E-003
   1496.49883   6.37614821E-003
   1495.16506   6.03826460E-003
   1493.83128   5.74691700E-003
   1492.49750   5.49375351E-003
   1491.16372   5.27224251E-003
   1489.82994   5.07721801E-003
   1488.49617   4.90455169E-003
   1487.16239   4.75091287E-003
   1485.82861   4.61359079E-003
   1484.49483   4.49036136E-003
   1483.16105   4.37938610E-003
   1481.82728   4.27913478E-003
   1480.49350   4.18832566E-003
   1479.15972   4.10587879E-003
   1477.82594   4.03087930E-003
   1476.49216   3.96254839E-003
   1475.15839   3.90022000E-003
   1473.82461   3.84332223E-003
   1472.49083   3.79136215E-003
   1471.15705   3.74391358E-003
   1469.82327   3.70060696E-003
   1468.48950   3.66112113E-003
   1467.15572   3.62517645E-003
   1465.82194   3.59252914E-003
   1464.48816   3.56296656E-003
   1463.15438   3.53630325E-003
   1461.82061   3.51237760E-003
   1460.48683   3.49104913E-003
   1459.15305   3.47219607E-003
   1457.81927   3.45571350E-003
   1456.48550   3.44151159E-003
   1455.15172   3.42951432E-003
   1453.81794   3.41965828E-003
   1452.48416   3.41189171E-003
   1451.15038   3.40617380E-003
   1449.81661   3.40247399E-003
   1448.48283   3.40077157E-003
   1447.14905   3.40105527E-003
   1445.81527   3.40332311E-003
   1444.48149   3.40758224E-003
   1443.14772   3.41384897E-003
   1441.81394   3.42214886E-003
   1440.48016   3.43251700E-003
   1439.14638   3.44499831E-003
   1437.81260   3.45964804E-003
   1436.47883   3.47653236E-003
   1435.14505   3.49572914E-003
   1433.81127   3.51732886E-003
   1432.47749   3.54143572E-003
   1431.14371   3.56816896E-003
   1429.80994   3.59766445E-003
   1428.47616   3.63007653E-003
   1427.14238   3.66558023E-003
   1425.80860   3.70437384E-003
   1424.47482   3.74668204E-003
   1423.14105   3.79275949E-003
   1421.80727   3.84289520E-003
   1420.47349   3.89741773E-003
   1419.13971   3.95670134E-003
   1417.80594   4.02117352E-003
   1416.47216   4.09132394E-003
   1415.13838   4.16771544E-003
   1413.80460   4.25099741E-003
   1412.47082   4.34192227E-003
   1411.13705   4.44136576E-003
   1409.80327   4.55035242E-003
   1408.46949   4.67008739E-003
   1407.13571   4.80199681E-003
   1405.80193   4.94777941E-003
   1404.46816   5.10947306E-003
   1403.13438   5.28954158E-003
   1401.80060   5.49098913E-003
   1400.46682   5.71751308E-003
   1399.13304   5.97371080E-003
   1397.79927   6.26536381E-003
   1396.46549   6.59983439E-003
   1395.13171   6.98662941E-003
   1393.79793   7.43821727E-003
   1392.46415   7.97123734E-003
   1391.13038   8.60833133E-003
   1389.79660   9.38098361E-003
   1388.46282   1.03340311E-002
   1387.12904   1.15329694E-002
   1385.79527   1.30758947E-002
   1384.46149   1.51125940E-002
   1383.12771   1.78716307E-002
   1381.79393   2.16808380E-002
   1380.46015   2.68950905E-002
   1379.12638   3.34592523E-002
   1377.79260   4.00405387E-002
   1376.45882   4.49201888E-002
   1375.12504   4.95253708E-002
   1373.79126   5.75458253E-002
   1372.45749   7.16922513E-002
   1371.12371   9.22753341E-002
   1369.78993   1.13057565E-001
   1368.45615   1.18924989E-001
   1367.12237   1.03451589E-001
   1365.78860   7.97063671E-002
   1364.45482   5.94347193E-002
   1363.12104   4.50921118E-002
   1361.78726   3.54439543E-002
   1360.45348   2.89593935E-002
   1359.11971   2.45410018E-002
   1357.78593   2.14882606E-002
   1356.45215   1.93637581E-002
   1355.11837   1.78923307E-002
   1353.78459   1.68981928E-002
   1352.45082   1.62674987E-002
   1351.11704   1.59261328E-002
   1349.78326   1.58264190E-002
   1348.44948   1.59391025E-002
   1347.11571   1.62485367E-002
   1345.78193   1.67499064E-002
   1344.44815   1.74478324E-002
   1343.11437   1.83560183E-002
   1341.78059   1.94978005E-002
   1340.44682   2.09076184E-002
   1339.11304   2.26335733E-002
   1337.77926   2.47414203E-002
   1336.44548   2.73205912E-002
   1335.11170   3.04932327E-002
   1333.77793   3.44278818E-002
   1332.44415   3.93604702E-002
   1331.11037   4.56272091E-002
   1329.77659   5.37171780E-002
   1328.44281   6.43582502E-002
   1327.10904   7.86601715E-002
   1325.77526   9.83552708E-002
   1324.44148   1.26198236E-001
   1323.10770   1.66579333E-001
   1321.77392   2.26188291E-001
   1320.44015   3.13352997E-001
   1319.10637   4.30291786E-001
   1317.77259   5.47518989E-001
   1316.43881   5.87324799E-001
   1315.10504   5.11854452E-001
   1313.77126   3.87966175E-001
   1312.43748   2.80174229E-001
   1311.10370   2.03223338E-001
   1309.76992   1.51031243E-001
   1308.43615   1.15514538E-001
   1307.10237   9.08124507E-002
   1305.76859   7.31705995E-002
   1304.43481   6.02383196E-002
   1303.10103   5.05291754E-002
   1301.76726   4.30830578E-002
   1300.43348   3.72644551E-002
   1299.09970   3.26422918E-002
   1297.76592   2.89173100E-002
   1296.43214   2.58772661E-002
   1295.09837   2.33686565E-002
   1293.76459   2.12784709E-002
   1292.43081   1.95221579E-002
   1291.09703   1.80355285E-002
   1289.76325   1.67692025E-002
   1288.42948   1.56847342E-002
   1287.09570   1.47518650E-002
   1285.76192   1.39465451E-002
   1284.42814   1.32494915E-002
   1283.09436   1.26451209E-002
   1281.76059   1.21207531E-002
   1280.42681   1.16660088E-002
   1279.09303   1.12723501E-002
   1277.75925   1.09327271E-002
   1276.42548   1.06413037E-002
   1275.09170   1.03932437E-002
   1273.75792   1.01845429E-002
   1272.42414   1.00118970E-002
   1271.09036   9.87259697E-003
   1269.75659   9.76444739E-003
   1268.42281   9.68570177E-003
   1267.08903   9.63501294E-003
   1265.75525   9.61139533E-003
   1264.42147   9.61419774E-003
   1263.08770   9.64308511E-003
   1261.75392   9.69802864E-003
   1260.42014   9.77930372E-003
   1259.08636   9.88749569E-003
   1257.75258   1.00235135E-002
   1256.41881   1.01886120E-002
   1255.08503   1.03844241E-002
   1253.75125   1.06130038E-002
   1252.41747   1.08768824E-002
   1251.08369   1.11791412E-002
   1249.74992   1.15235036E-002
   1248.41614   1.19144525E-002
   1247.08236   1.23573790E-002
   1245.74858   1.28587730E-002
   1244.41480   1.34264664E-002
   1243.08103   1.40699472E-002
   1241.74725   1.48007679E-002
   1240.41347   1.56330805E-002
   1239.07969   1.65843461E-002
   1237.74592   1.76762838E-002
   1236.41214   1.89361571E-002
   1235.07836   2.03985402E-002
   1233.74458   2.21077767E-002
   1232.41080   2.41214570E-002
   1231.07703   2.65154179E-002
   1229.74325   2.93910618E-002
   1228.40947   3.28862824E-002
   1227.07569   3.71921182E-002
   1225.74191   4.25787013E-002
   1224.40814   4.94366246E-002
   1223.07436   5.83443833E-002
   1221.74058   7.01805007E-002
   1220.40680   8.63120125E-002
   1219.07302   1.08907654E-001
   1217.73925   1.41420157E-001
   1216.40547   1.89119550E-001
   1215.07169   2.58638336E-001
   1213.73791   3.52110484E-001
   1212.40413   4.47301737E-001
   1211.07036   4.83234917E-001
   1209.73658   4.27587734E-001
   1208.40280   3.31985132E-001
   1207.06902   2.48837718E-001
   1205.73525   1.90881106E-001
   1204.40147   1.53721028E-001
   1203.06769   1.31266492E-001
   1201.73391   1.19336392E-001
   1200.40013   1.15707195E-001
   1199.06636   1.19726194E-001
   1197.73258   1.32162784E-001
   1196.39880   1.55378119E-001
   1195.06502   1.93671374E-001
   1193.73124   2.52884072E-001
   1192.39747   3.35392885E-001
   1191.06369   4.22348728E-001
   1189.72991   4.57867350E-001
   1188.39613   4.06916412E-001
   1187.06235   3.14395737E-001
   1185.72858   2.31422328E-001
   1184.39480   1.71577984E-001
   1183.06102   1.30910391E-001
   1181.72724   1.03306885E-001
   1180.39346   8.42366431E-002
   1179.05969   7.07849606E-002
   1177.72591   6.11318706E-002
   1176.39213   5.41363532E-002
   1175.05835   4.90742246E-002
   1173.72457   4.54824141E-002
   1172.39080   4.30678124E-002
   1171.05702   4.16545459E-002
   1169.72324   4.11548708E-002
   1168.38946   4.15558871E-002
   1167.05569   4.29186999E-002
   1165.72191   4.53899420E-002
   1164.38813   4.92288509E-002
   1163.05435   5.48574770E-002
   1161.72057   6.29484698E-002
   1160.38680   7.45756905E-002
   1159.05302   9.14661718E-002
   1157.71924   1.16386665E-001
   1156.38546   1.53556148E-001
   1155.05168   2.08190630E-001
   1153.71791   2.81477846E-001
   1152.38413   3.54273698E-001
   1151.05035   3.77468813E-001
   1149.71657   3.28614563E-001
   1148.38279   2.50470171E-001
   1147.04902   1.82918864E-001
   1145.71524   1.34751103E-001
   1144.38146   1.02048085E-001
   1143.04768   7.97503301E-002
   1141.71390   6.42060513E-002
   1140.38013   5.30780436E-002
   1139.04635   4.49026205E-002
   1137.71257   3.87536111E-002
   1136.37879   3.40322867E-002
   1135.04502   3.03419834E-002
   1133.71124   2.74134024E-002
   1132.37746   2.50594464E-002
   1131.04368   2.31473398E-002
   1129.70990   2.15810253E-002
   1128.37613   2.02897979E-002
   1127.04235   1.92208056E-002
   1125.70857   1.83340026E-002
   1124.37479   1.75986874E-002
   1123.04101   1.69910889E-002
   1121.70724   1.64926559E-002
   1120.37346   1.60888292E-002
   1119.03968   1.57681484E-002
   1117.70590   1.55215965E-002
   1116.37212   1.53421148E-002
   1115.03835   1.52242431E-002
   1113.70457   1.51638525E-002
   1112.37079   1.51579491E-002
   1111.03701   1.52045324E-002
   1109.70323   1.53024996E-002
   1108.36946   1.54515862E-002
   1107.03568   1.56523413E-002
   1105.70190   1.59061349E-002
   1104.36812   1.62151992E-002
   1103.03434   1.65827064E-002
   1101.70057   1.70128927E-002
   1100.36679   1.75112391E-002
   1099.03301   1.80847309E-002
   1097.69923   1.87422245E-002
   1096.36546   1.94949753E-002
   1095.03168   2.03574038E-002
   1093.69790   2.13482364E-002
   1092.36412   2.24922448E-002
   1091.03034   2.38229717E-002
   1089.69657   2.53871105E-002
   1088.36279   2.72516548E-002
   1087.02901   2.95154663E-002
   1085.69523   3.23265197E-002
   1084.36145   3.58993022E-002
   1083.02768   4.04908109E-002
   1081.69390   4.61709963E-002
   1080.36012   5.21343676E-002
   1079.02634   5.64764311E-002
   1077.69256   5.86923848E-002
   1076.35879   6.07985802E-002
   1075.02501   6.45115629E-002
   1073.69123   7.04333291E-002
   1072.35745   7.88559507E-002
   1071.02367   9.02447515E-002
   1069.68990   1.05429516E-001
   1068.35612   1.25773667E-001
   1067.02234   1.53451485E-001
   1065.68856   1.91930752E-001
   1064.35478   2.46775856E-001
   1063.02101   3.26814331E-001
   1061.68723   4.45014965E-001
   1060.35345   6.15057677E-001
   1059.01967   8.29560630E-001
   1057.68590   1.00755832E+000
   1056.35212   1.00987550E+000
   1055.01834   8.34919916E-001
   1053.68456   6.21476241E-001
   1052.35078   4.51987902E-001
   1051.01701   3.34523591E-001
   1049.68323   2.55496332E-001
   1048.34945   2.01888575E-001
   1047.01567   1.64820811E-001
   1045.68189   1.38691934E-001
   1044.34812   1.20004955E-001
   1043.01434   1.06551473E-001
   1041.68056   9.69138322E-002
   1040.34678   9.01701746E-002
   1039.01300   8.57197038E-002
   1037.67923   8.31785326E-002
   1036.34545   8.23178297E-002
   1035.01167   8.30284506E-002
   1033.67789   8.53034713E-002
   1032.34411   8.92344549E-002
   1031.01034   9.50203351E-002
   1029.67656   1.02990462E-001
   1028.34278   1.13646418E-001
   1027.00900   1.27731643E-001
   1025.67523   1.46345107E-001
   1024.34145   1.71127751E-001
   1023.00767   2.04572273E-001
   1021.67389   2.50544094E-001
   1020.34011   3.15156885E-001
   1019.00634   4.08187170E-001
   1017.67256   5.45007149E-001
   1016.33878   7.47435991E-001
   1015.00500   1.03486334E+000
   1013.67122   1.37932583E+000
   1012.33745   1.62090322E+000
   1011.00367   1.55397801E+000
   1009.66989   1.24271884E+000
   1008.33611   9.09660762E-001
   1007.00233   6.55632511E-001
   1005.66856   4.80883723E-001
   1004.33478   3.62536814E-001
   1003.00100   2.81114570E-001
   1001.66722   2.23660845E-001
   1000.33344   1.82028570E-001
    998.99967   1.51102982E-001
    997.66589   1.27617825E-001
    996.33211   1.09439049E-001
    994.99833   9.51393478E-002
    993.66455   8.37435690E-002
    992.33078   7.45739549E-002
    990.99700   6.71546105E-002
    989.66322   6.11522006E-002
    988.32944   5.63399574E-002
    986.99567   5.25781418E-002
    985.66189   4.98081799E-002
    984.32811   4.80610132E-002
    982.99433   4.74831118E-002
    981.66055   4.83834620E-002
    980.32678   5.12853496E-002
    978.99300   5.68574815E-002
    977.65922   6.52095582E-002
    976.32544   7.36361468E-002
    974.99166   7.53529897E-002
    973.65789   6.73642157E-002
    972.32411   5.55780530E-002
    970.99033   4.54046302E-002
    969.65655   3.80051057E-002
    968.32277   3.28283272E-002
    966.98900   2.91785819E-002
    965.65522   2.65577492E-002
    964.32144   2.46518267E-002
    962.98766   2.32718433E-002
    961.65388   2.23103179E-002
    960.32011   2.17164953E-002
    958.98633   2.14857635E-002
    957.65255   2.16604702E-002
    956.31877   2.23423088E-002
    954.98499   2.37185961E-002
    953.65122   2.61014416E-002
    952.31744   2.99470442E-002
    950.98366   3.56769883E-002
    949.64988   4.27461327E-002
    948.31611   4.78039780E-002
    946.98233   4.63139592E-002
    945.64855   3.94178489E-002
    944.31477   3.19420412E-002
    942.98099   2.61750941E-002
    941.64722   2.21615874E-002
    940.31344   1.94079669E-002
    938.97966   1.74867287E-002
    937.64588   1.61121555E-002
    936.31210   1.51042436E-002
    934.97833   1.43498639E-002
    933.64455   1.37767149E-002
    932.31077   1.33375308E-002
    930.97699   1.30006938E-002
    929.64321   1.27446104E-002
    928.30944   1.25542811E-002
    926.97566   1.24191647E-002
    925.64188   1.23318209E-002
    924.30810   1.22870312E-002
    922.97432   1.22812223E-002
    921.64055   1.23120846E-002
    920.30677   1.23783224E-002
    918.97299   1.24794934E-002
    917.63921   1.26159146E-002
    916.30544   1.27886188E-002
    914.97166   1.29993535E-002
    913.63788   1.32506188E-002
    912.30410   1.35457445E-002
    910.97032   1.38890118E-002
    909.63655   1.42858270E-002
    908.30277   1.47429619E-002
    906.96899   1.52688811E-002
    905.63521   1.58741857E-002
    904.30143   1.65722197E-002
    902.96766   1.73799037E-002
    901.63388   1.83188935E-002
    900.30010   1.94172156E-002
    898.96632   2.07116065E-002
    897.63254   2.22509205E-002
    896.29877   2.41011858E-002
    894.96499   2.63532577E-002
    893.63121   2.91346570E-002
    892.29743   3.26282975E-002
    890.96365   3.71027923E-002
    889.62988   4.29625355E-002
    888.29610   5.08317206E-002
    886.96232   6.16951807E-002
    885.62854   7.71243316E-002
    884.29476   9.95776306E-002
    882.96099   1.32486686E-001
    881.62721   1.78636783E-001
    880.29343   2.32572887E-001
    878.95965   2.67848881E-001
    877.62588   2.54432498E-001
    876.29210   2.06033897E-001
    874.95832   1.56484702E-001
    873.62454   1.19603985E-001
    872.29076   9.48364218E-002
    870.95699   7.86419985E-002
    869.62321   6.81199482E-002
    868.28943   6.13686672E-002
    866.95565   5.72095149E-002
    865.62187   5.49207115E-002
    864.28810   5.40633050E-002
    862.95432   5.43775040E-002
    861.62054   5.57228825E-002
    860.28676   5.80449726E-002
    858.95298   6.13582237E-002
    857.61921   6.57400485E-002
    856.28543   7.13336328E-002
    854.95165   7.83592625E-002
    853.61787   8.71357702E-002
    852.28409   9.81159010E-002
    850.95032   1.11942620E-001
    849.61654   1.29538672E-001
    848.28276   1.52250864E-001
    846.94898   1.82086619E-001
    845.61521   2.22108259E-001
    844.28143   2.77094770E-001
    842.94765   3.54629616E-001
    841.61387   4.66711024E-001
    840.28009   6.31197716E-001
    838.94632   8.68422439E-001
    837.61254   1.17558558E+000
    836.27876   1.45763775E+000
    834.94498   1.52575223E+000
    833.61120   1.35376902E+000
    832.27743   1.13392976E+000
    830.94365   9.97897898E-001
    829.60987   9.45432028E-001
    828.27609   8.92533152E-001
    826.94231   7.64542160E-001
    825.60854   5.95075294E-001
    824.27476   4.46863699E-001
    822.94098   3.37968084E-001
    821.60720   2.61595332E-001
    820.27342   2.07737397E-001
    818.93965   1.68886165E-001
    817.60587   1.40115189E-001
    816.27209   1.18269376E-001
    814.93831   1.01306434E-001
    813.60453   8.78747148E-002
    812.27076   7.70569007E-002
    810.93698   6.82148856E-002
    809.60320   6.08944668E-002
    808.26942   5.47655139E-002
    806.93565   4.95835223E-002
    805.60187   4.51643345E-002
    804.26809   4.13671531E-002
    802.93431   3.80828943E-002
    801.60053   3.52260536E-002
    800.26676   3.27289315E-002
    798.93298   3.05374717E-002
    797.59920   2.86082271E-002
    796.26542   2.69061247E-002
    794.93164   2.54028102E-002
    793.59787   2.40754236E-002
    792.26409   2.29057025E-002
    790.93031   2.18793467E-002
    789.59653   2.09856036E-002
    788.26275   2.02170541E-002
    786.92898   1.95696014E-002
    785.59520   1.90426892E-002
    784.26142   1.86398065E-002
    782.92764   1.83693842E-002
    781.59386   1.82462601E-002
    780.26009   1.82940140E-002
    778.92631   1.85486794E-002
    777.59253   1.90647019E-002
    776.25875   1.99246593E-002
    774.92497   2.12553919E-002
    773.59120   2.32551235E-002
    772.25742   2.62389777E-002
    770.92364   3.07120466E-002
    769.58986   3.74666120E-002
    768.25609   4.76101662E-002
    766.92231   6.20420383E-002
    765.58853   7.89971787E-002
    764.25475   8.99159094E-002
    762.92097   8.50627729E-002
    761.58720   6.88579079E-002
    760.25342   5.22534357E-002
    758.91964   3.97253363E-002
    757.58586   3.10901102E-002
    756.25208   2.51947871E-002
    754.91831   2.10918779E-002
    753.58453   1.81560854E-002
    752.25075   1.59945634E-002
    750.91697   1.43602675E-002
    749.58319   1.30949762E-002
    748.24942   1.20949123E-002
    746.91564   1.12903063E-002
    745.58186   1.06331322E-002
    744.24808   1.00896059E-002
    742.91430   9.63549593E-003
    741.58053   9.25312620E-003
    740.24675   8.92941974E-003
    738.91297   8.65459708E-003
    737.57919   8.42129637E-003
    736.24542   8.22397152E-003
    734.91164   8.05847858E-003
    733.57786   7.92179352E-003
    732.24408   7.81182586E-003
    730.91030   7.72730650E-003
    729.57653   7.66773832E-003
    728.24275   7.63340619E-003
    726.90897   7.62545132E-003
    725.57519   7.64602408E-003
    724.24141   7.69854253E-003
    722.90764   7.78810357E-003
    721.57386   7.92212609E-003
    720.24008   8.11135943E-003
    718.90630   8.37148541E-003
    717.57252   8.72570869E-003
    716.23875   9.20902599E-003
    714.90497   9.87537582E-003
    713.57119   1.08096665E-002
    712.23741   1.21474640E-002
    710.90363   1.41033998E-002
    709.56986   1.69923913E-002
    708.23608   2.11456851E-002
    706.90230   2.63803885E-002
    705.56852   3.07253200E-002
    704.23474   3.08101487E-002
    702.90097   2.66165367E-002
    701.56719   2.15108783E-002
    700.23341   1.74823203E-002
    698.89963   1.47224751E-002
    697.56586   1.29018914E-002
    696.23208   1.17058363E-002
    694.89830   1.09198976E-002
    693.56452   1.04090147E-002
    692.23074   1.00890359E-002
    690.89697   9.90697796E-003
    689.56319   9.82896596E-003
    688.22941   9.83307336E-003
    686.89563   9.90505530E-003
    685.56185   1.00357704E-002
    684.22808   1.02195977E-002
    682.89430   1.04534533E-002
    681.56052   1.07361771E-002
    680.22674   1.10681578E-002
    678.89296   1.14511159E-002
    677.55919   1.18879992E-002
    676.22541   1.23829630E-002
    674.89163   1.29414221E-002
    673.55785   1.35701680E-002
    672.22407   1.42775544E-002
    670.89030   1.50737582E-002
    669.55652   1.59711302E-002
    668.22274   1.69846588E-002
    666.88896   1.81325776E-002
    665.55519   1.94371632E-002
    664.22141   2.09257878E-002
    662.88763   2.26323179E-002
    661.55385   2.45989917E-002
    660.22007   2.68789658E-002
    658.88630   2.95398138E-002
    657.55252   3.26683995E-002
    656.21874   3.63777669E-002
    654.88496   4.08170418E-002
    653.55118   4.61859186E-002
    652.21741   5.27562661E-002
    650.88363   6.09050216E-002
    649.54985   7.11653817E-002
    648.21607   8.43082817E-002
    646.88229   1.01474982E-001
    645.54852   1.24396901E-001
    644.21474   1.55763370E-001
    642.88096   1.99826220E-001
    641.54718   2.63303871E-001
    640.21340   3.56261502E-001
    638.87963   4.90723347E-001
    637.54585   6.69264177E-001
    636.21207   8.56228782E-001
    634.87829   9.67203735E-001
    633.54451   9.26498747E-001
    632.21074   7.55356415E-001
    630.87696   5.59486816E-001
    629.54318   4.04163497E-001
    628.20940   2.95734721E-001
    626.87563   2.22032821E-001
    625.54185   1.71341949E-001
    624.20807   1.35623162E-001
    622.87429   1.09775828E-001
    621.54051   9.05916852E-002
    620.20674   7.60224632E-002
    618.87296   6.47303025E-002
    617.53918   5.58195570E-002
    616.20540   4.86760333E-002
    614.87162   4.28689573E-002
    613.53785   3.80898866E-002
    612.20407   3.41137715E-002
    610.87029   3.07735766E-002
    609.53651   2.79433895E-002
    608.20273   2.55269525E-002
    606.86896   2.34497339E-002
    605.53518   2.16533528E-002
    604.20140   2.00915959E-002
    602.86762   1.87275323E-002
    601.53384   1.75313946E-002
    600.20007   1.64790041E-002
    598.86629   1.55505871E-002
    597.53251   1.47298763E-002
    596.19873   1.40034218E-002
    594.86495   1.33600595E-002
    593.53118   1.27904968E-002
    592.19740   1.22869886E-002
    590.86362   1.18430824E-002
    589.52984   1.14534184E-002
    588.19607   1.11135711E-002
    586.86229   1.08199263E-002
    585.52851   1.05695856E-002
    584.19473   1.03602946E-002
    582.86095   1.01903906E-002
    581.52718   1.00587696E-002
    580.19340   9.96486842E-003
    578.85962   9.90866434E-003
    577.52584   9.89069047E-003
    576.19206   9.91206972E-003
    574.85829   9.97456892E-003
    573.52451   1.00806769E-002
    572.19073   1.02337119E-002
    570.85695   1.04379653E-002
    569.52317   1.06988926E-002
    568.18940   1.10233653E-002
    566.85562   1.14200038E-002
    565.52184   1.18996195E-002
    564.18806   1.24758067E-002
    562.85428   1.31657403E-002
    561.52051   1.39912645E-002
    560.18673   1.49803958E-002
    558.85295   1.61694269E-002
    557.51917   1.76059154E-002
    556.18540   1.93530007E-002
    554.85162   2.14957528E-002
    553.51784   2.41506885E-002
    552.18406   2.74803397E-002
    550.85028   3.17160467E-002
    549.51651   3.71944413E-002
    548.18273   4.44171412E-002
    546.84895   5.41502732E-002
    545.51517   6.75919014E-002
    544.18139   8.66490341E-002
    542.84762   1.14355824E-001
    541.51384   1.55290122E-001
    540.18006   2.14915967E-001
    538.84628   2.93595181E-001
    537.51250   3.68530401E-001
    536.17873   3.87091589E-001
    534.84495   3.31460151E-001
    533.51117   2.49486183E-001
    532.17739   1.80396934E-001
    530.84361   1.31589557E-001
    529.50984   9.85912459E-002
    528.17606   7.61788932E-002
    526.84228   6.06518012E-002
    525.50850   4.96591499E-002
    524.17472   4.17405643E-002
    522.84095   3.59876222E-002
    521.50717   3.18366831E-002
    520.17339   2.89505542E-002
    518.83961   2.71566509E-002
    517.50584   2.64241001E-002
    516.17206   2.68725391E-002
    514.83828   2.88065538E-002
    513.50450   3.27370174E-002
    512.17072   3.91855968E-002
    510.83695   4.76067656E-002
    509.50317   5.40453887E-002
    508.16939   5.25120702E-002
    506.83561   4.37280174E-002
    505.50183   3.38298644E-002
    504.16806   2.60477848E-002
    502.83428   2.05612223E-002
    501.50050   1.67472417E-002
    500.16672   1.40426305E-002
    498.83294   1.20664557E-002
    497.49917   1.05773579E-002
    496.16539   9.42291563E-003
    494.83161   8.50512768E-003
    493.49783   7.75938269E-003
    492.16405   7.14193261E-003
    490.83028   6.62237771E-003
    489.49650   6.17907377E-003
    488.16272   5.79626127E-003
    486.82894   5.46222825E-003
    485.49517   5.16810736E-003
    484.16139   4.90707061E-003
    482.82761   4.67377926E-003
    481.49383   4.46400057E-003
    480.16005   4.27433614E-003
    478.82628   4.10202601E-003
    477.49250   3.94480527E-003
    476.15872   3.80079766E-003
    474.82494   3.66843540E-003
    473.49116   3.54639823E-003
    472.15739   3.43356642E-003
    470.82361   3.32898418E-003
    469.48983   3.23183091E-003
    468.15605   3.14139844E-003
    466.82227   3.05707276E-003
    465.48850   2.97831938E-003
    464.15472   2.90467138E-003
    462.82094   2.83571980E-003
    461.48716   2.77110558E-003
    460.15338   2.71051315E-003
    458.81961   2.65366500E-003
    457.48583   2.60031726E-003
    456.15205   2.55025618E-003
    454.81827   2.50329513E-003
    453.48449   2.45927235E-003
    452.15072   2.41804922E-003
    450.81694   2.37950901E-003
    449.48316   2.34355621E-003
    448.14938   2.31011639E-003
    446.81561   2.27913670E-003
    445.48183   2.25058711E-003
    444.14805   2.22446261E-003
    442.81427   2.20078658E-003
    441.48049   2.17961588E-003
    440.14672   2.16104833E-003
    438.81294   2.14523358E-003
    437.47916   2.13238908E-003
    436.14538   2.12282384E-003
    434.81160   2.11697447E-003
    433.47783   2.11546057E-003
    432.14405   2.11917227E-003
    430.81027   2.12941134E-003
    429.47649   2.14812367E-003
    428.14271   2.17828846E-003
    426.80894   2.22456939E-003
    425.47516   2.29435802E-003
    424.14138   2.39916085E-003
    422.80760   2.55500126E-003
    421.47382   2.77497592E-003
    420.14005   3.03433015E-003
    418.80627   3.21183222E-003
    417.47249   3.16989062E-003
    416.13871   2.97222795E-003
    414.80493   2.77519325E-003
    413.47116   2.64325292E-003
    412.13738   2.57499590E-003
    410.80360   2.55557256E-003
    409.46982   2.57344033E-003
    408.13605   2.62213201E-003
    406.80227   2.69914317E-003
    405.46849   2.80492953E-003
    404.13471   2.94242112E-003
    402.80093   3.11700036E-003
    401.46716   3.33689670E-003
    400.13338   3.61403813E-003
    398.79960   3.96551331E-003
    397.46582   4.41595726E-003
    396.13204   5.00143032E-003
    394.79827   5.77580202E-003
    393.46449   6.82141584E-003
    392.13071   8.26704920E-003
    390.79693   1.03176853E-002
    389.46315   1.32997542E-002
    388.12938   1.77077645E-002
    386.79560   2.41420676E-002
    385.46182   3.26909164E-002
    384.12804   4.09998648E-002
    382.79426   4.33516264E-002
    381.46049   3.74865416E-002
    380.12671   2.85012103E-002
    378.79293   2.08356312E-002
    377.45915   1.53946511E-002
    376.12538   1.17058236E-002
    374.79160   9.19158824E-003
    373.45782   7.43889360E-003
    372.12404   6.18398447E-003
    370.79026   5.26172447E-003
    369.45649   4.56757879E-003
    368.12271   4.03393230E-003
    366.78893   3.61596545E-003
    365.45515   3.28323648E-003
    364.12137   3.01458842E-003
    362.78760   2.79500250E-003
    361.45382   2.61360985E-003
    360.12004   2.46240661E-003
    358.78626   2.33540553E-003
    357.45248   2.22806457E-003
    356.11871   2.13689469E-003
    354.78493   2.05918604E-003
    353.45115   1.99281377E-003
    352.11737   1.93609825E-003
    350.78359   1.88770327E-003
    349.44982   1.84656089E-003
    348.11604   1.81181553E-003
    346.78226   1.78278195E-003
    345.44848   1.75891357E-003
    344.11470   1.73977835E-003
    342.78093   1.72504066E-003
    341.44715   1.71444759E-003
    340.11337   1.70781879E-003
    338.77959   1.70503934E-003
    337.44582   1.70605498E-003
    336.11204   1.71086944E-003
    334.77826   1.71954380E-003
    333.44448   1.73219771E-003
    332.11070   1.74901255E-003
    330.77693   1.77023669E-003
    329.44315   1.79619314E-003
    328.10937   1.82728999E-003
    326.77559   1.86403429E-003
    325.44181   1.90705016E-003
    324.10804   1.95710234E-003
    322.77426   2.01512686E-003
    321.44048   2.08227081E-003
    320.10670   2.15994465E-003
    318.77292   2.24989108E-003
    317.43915   2.35427677E-003
    316.10537   2.47581579E-003
    314.77159   2.61793742E-003
    313.43781   2.78501756E-003
    312.10403   2.98270195E-003
    310.77026   3.21836479E-003
    309.43648   3.50177023E-003
    308.10270   3.84604376E-003
    306.76892   4.26912642E-003
    305.43515   4.79599772E-003
    304.10137   5.46214857E-003
    302.76759   6.31913187E-003
    301.43381   7.44363222E-003
    300.10003   8.95257164E-003
    298.76626   1.10285210E-002
    297.43248   1.39618479E-002
    296.09870   1.82150247E-002
    294.76492   2.44903881E-002
    293.43114   3.36501264E-002
    292.09737   4.58668668E-002
    290.76359   5.79046937E-002
    289.42981   6.16237377E-002
    288.09603   5.34850432E-002
    286.76225   4.06393562E-002
    285.42848   2.95927065E-002
    284.09470   2.17404720E-002
    282.76092   1.64249378E-002
    281.42714   1.28138823E-002
    280.09336   1.03087448E-002
    278.75959   8.52688575E-003
    277.42581   7.22883550E-003
    276.09203   6.26318618E-003
    274.75825   5.53218605E-003
    273.42447   4.97121432E-003
    272.09070   4.53655471E-003
    270.75692   4.19800580E-003
    269.42314   3.93432309E-003
    268.08936   3.73034618E-003
    266.75559   3.57515020E-003
    265.42181   3.46083414E-003
    264.08803   3.38171510E-003
    262.75425   3.33378782E-003
    261.42047   3.31436261E-003
    260.08670   3.32182747E-003
    258.75292   3.35550093E-003
    257.41914   3.41555497E-003
    256.08536   3.50299740E-003
    254.75158   3.61970954E-003
    253.41781   3.76854183E-003
    252.08403   3.95347621E-003
    250.75025   4.17987189E-003
    249.41647   4.45482197E-003
    248.08269   4.78766290E-003
    246.74892   5.19070251E-003
    245.41514   5.68026770E-003
    244.08136   6.27823098E-003
    242.74758   7.01426991E-003
    241.41380   7.92927276E-003
    240.08003   9.08057698E-003
    238.74625   1.05502036E-002
    237.41247   1.24580947E-002
    236.07869   1.49838580E-002
    234.74491   1.84031181E-002
    233.41114   2.31486525E-002
    232.07736   2.99106930E-002
    230.74358   3.97831679E-002
    229.40980   5.43814303E-002
    228.07603   7.54565387E-002
    226.74225   1.02304378E-001
    225.40847   1.25225354E-001
    224.07469   1.26566515E-001
    222.74091   1.05012779E-001
    221.40714   7.78853758E-002
    220.07336   5.60912174E-002
    218.73958   4.08912840E-002
    217.40580   3.06023907E-002
    216.07202   2.35609817E-002
    214.73825   1.86239167E-002
    213.40447   1.50676909E-002
    212.07069   1.24389393E-002
    210.73691   1.04494489E-002
    209.40313   8.91179552E-003
    208.06936   7.70104867E-003
    206.73558   6.73189236E-003
    205.40180   5.94472324E-003
    204.06802   5.29701945E-003
    202.73424   4.75785929E-003
    201.40047   4.30436158E-003
    200.06669   3.91932460E-003
    198.73291   3.58962849E-003
    197.39913   3.30513416E-003
    196.06536   3.05791125E-003
    194.73158   2.84168819E-003
    193.39780   2.65145476E-003
    192.06402   2.48317080E-003
    190.73024   2.33355019E-003
    189.39647   2.19989869E-003
    188.06269   2.07999083E-003
    186.72891   1.97197564E-003
    185.39513   1.87430368E-003
    184.06135   1.78567008E-003
    182.72758   1.70496970E-003
    181.39380   1.63126163E-003
    180.06002   1.56374074E-003
    178.72624   1.50171490E-003
    177.39246   1.44458644E-003
    176.05869   1.39183711E-003
    174.72491   1.34301575E-003
    173.39113   1.29772813E-003
    172.05735   1.25562856E-003
    170.72357   1.21641283E-003
    169.38980   1.17981243E-003
    168.05602   1.14558960E-003
    166.72224   1.11353321E-003
    165.38846   1.08345525E-003
    164.05468   1.05518784E-003
    162.72091   1.02858072E-003
    161.38713   1.00349902E-003
    160.05335   9.79821477E-004
    158.71957   9.57438745E-004
    157.38580   9.36252055E-004
    156.05202   9.16171992E-004
    154.71824   8.97117449E-004
    153.38446   8.79014717E-004
    152.05068   8.61796685E-004
    150.71691   8.45402141E-004
    149.38313   8.29775159E-004
    148.04935   8.14864557E-004
    146.71557   8.00623419E-004
    145.38179   7.87008675E-004
    144.04802   7.73980728E-004
    142.71424   7.61503116E-004
    141.38046   7.49542224E-004
    140.04668   7.38067016E-004
    138.71290   7.27048798E-004
    137.37913   7.16461013E-004
    136.04535   7.06279047E-004
    134.71157   6.96480061E-004
    133.37779   6.87042840E-004
    132.04401   6.77947652E-004
    130.71024   6.69176129E-004
    129.37646   6.60711151E-004
    128.04268   6.52536744E-004
    126.70890   6.44637994E-004
    125.37513   6.37000955E-004
    124.04135   6.29612581E-004
    122.70757   6.22460653E-004
    121.37379   6.15533715E-004
    120.04001   6.08821022E-004
    118.70624   6.02312481E-004
    117.37246   5.95998609E-004
    116.03868   5.89870484E-004
    114.70490   5.83919711E-004
    113.37112   5.78138379E-004
    112.03735   5.72519030E-004
    110.70357   5.67054628E-004
    109.36979   5.61738530E-004
    108.03601   5.56564460E-004
    106.70223   5.51526485E-004
    105.36846   5.46618989E-004
    104.03468   5.41836658E-004
    102.70090   5.37174457E-004
    101.36712   5.32627613E-004
    100.03334   5.28191599E-004
     98.69957   5.23862119E-004
     97.36579   5.19635092E-004
     96.03201   5.15506641E-004
     94.69823   5.11473080E-004
     93.36445   5.07530903E-004
     92.03068   5.03676772E-004
     90.69690   4.99907508E-004
     89.36312   4.96220085E-004
     88.02934   4.92611614E-004
     86.69557   4.89079343E-004
     85.36179   4.85620645E-004
     84.02801   4.82233011E-004
     82.69423   4.78914045E-004
     81.36045   4.75661457E-004
     80.02668   4.72473060E-004
     78.69290   4.69346759E-004
     77.35912   4.66280551E-004
     76.02534   4.63272518E-004
     74.69156   4.60320824E-004
     73.35779   4.57423707E-004
     72.02401   4.54579483E-004
     70.69023   4.51786532E-004
     69.35645   4.49043304E-004
     68.02267   4.46348308E-004
     66.68890   4.43700116E-004
     65.35512   4.41097353E-004
     64.02134   4.38538702E-004
     62.68756   4.36022893E-004
     61.35378   4.33548708E-004
     60.02001   4.31114974E-004
     58.68623   4.28720563E-004
     57.35245   4.26364389E-004
     56.01867   4.24045406E-004
     54.68489   4.21762608E-004
     53.35112   4.19515024E-004
     52.01734   4.17301719E-004
     50.68356   4.15121792E-004
     49.34978   4.12974374E-004
     48.01601   4.10858625E-004
     46.68223   4.08773737E-004
     45.34845   4.06718928E-004
     44.01467   4.04693444E-004
     42.68089   4.02696557E-004
     41.34712   4.00727562E-004
     40.01334   3.98785781E-004
     38.67956   3.96870554E-004
     37.34578   3.94981246E-004
     36.01200   3.93117243E-004
     34.67823   3.91277950E-004
     33.34445   3.89462790E-004
     32.01067   3.87671207E-004
     30.67689   3.85902661E-004
     29.34311   3.84156629E-004
     28.00934   3.82432606E-004
     26.67556   3.80730101E-004
     25.34178   3.79048638E-004
     24.00800   3.77387757E-004
     22.67422   3.75747010E-004
     21.34045   3.74125965E-004
     20.00667   3.72524201E-004
     18.67289   3.70941310E-004
     17.33911   3.69376896E-004
     16.00534   3.67830574E-004
     14.67156   3.66301972E-004
     13.33778   3.64790727E-004
     12.00400   3.63296487E-004
     10.67022   3.61818909E-004
      9.33645   3.60357661E-004
      8.00267   3.58912420E-004
      6.66889   3.57482871E-004
      5.33511   3.56068710E-004
      4.00133   3.54669638E-004
      2.66756   3.53285367E-004
      1.33378   3.51915615E-004
      0.00000   3.50560109E-004
